Trial 1:0back,Trial 2:2back,Trial 3:3back,Trial 4:2back,Trial 5:3back,Trial 6:0back
37.287,38.475,38.066,37.510999999999996,36.39,35.119
37.251,38.383,38.012,37.495,36.361999999999995,35.143
37.216,38.291,37.961,37.476,36.336,35.162
37.181,38.199,37.914,37.455,36.313,35.177
37.145,38.109,37.871,37.428000000000004,36.292,35.188
37.11,38.021,37.833,37.397,36.273,35.195
37.075,37.936,37.799,37.361,36.258,35.196999999999996
37.039,37.855,37.769,37.321,36.246,35.195
37.004,37.775999999999996,37.741,37.28,36.235,35.189
36.967,37.7,37.714,37.241,36.225,35.178000000000004
36.929,37.626,37.687,37.205,36.211999999999996,35.161
36.887,37.554,37.659,37.174,36.198,35.139
36.84,37.485,37.631,37.148,36.179,35.111999999999995
36.788000000000004,37.419000000000004,37.603,37.126999999999995,36.158,35.079
36.73,37.358000000000004,37.577,37.108000000000004,36.135,35.041
36.667,37.3,37.55,37.09,36.11,34.998000000000005
36.597,37.247,37.524,37.073,36.082,34.951
36.521,37.198,37.499,37.055,36.051,34.900999999999996
36.439,37.154,37.475,37.036,36.02,34.849000000000004
36.353,37.113,37.451,37.016999999999996,35.989000000000004,34.794000000000004
36.263000000000005,37.075,37.427,36.997,35.96,34.738
36.173,37.038000000000004,37.402,36.974000000000004,35.933,34.68
36.083,37.0,37.376999999999995,36.948,35.907,34.623000000000005
35.994,36.96,37.349000000000004,36.917,35.884,34.565
35.909,36.916,37.32,36.882,35.861999999999995,34.508
35.828,36.865,37.289,36.843,35.841,34.452
35.754,36.808,37.256,36.801,35.821999999999996,34.396
35.688,36.742,37.22,36.758,35.804,34.341
35.63,36.67,37.181999999999995,36.713,35.787,34.287
35.58,36.59,37.14,36.668,35.771,34.236
35.538000000000004,36.503,37.096,36.624,35.753,34.186
35.501999999999995,36.41,37.049,36.58,35.734,34.14
35.472,36.312,36.999,36.533,35.713,34.096
35.446,36.213,36.945,36.484,35.69,34.056
35.423,36.111999999999995,36.888000000000005,36.43,35.665,34.016999999999996
35.405,36.014,36.829,36.373000000000005,35.637,33.981
35.39,35.917,36.769,36.313,35.606,33.946999999999996
35.379,35.823,36.709,36.251,35.571,33.915
35.372,35.733000000000004,36.649,36.189,35.531,33.884
35.367,35.649,36.591,36.129,35.488,33.853
35.367,35.571,36.534,36.071999999999996,35.444,33.823
35.37,35.501,36.481,36.021,35.402,33.793
35.376999999999995,35.438,36.433,35.977,35.361999999999995,33.763000000000005
35.388000000000005,35.382,36.391,35.939,35.326,33.734
35.402,35.334,36.354,35.909,35.297,33.704
35.42,35.294000000000004,36.324,35.884,35.275,33.674
35.44,35.260999999999996,36.301,35.861999999999995,35.26,33.644
35.463,35.235,36.283,35.842,35.251,33.614000000000004
35.488,35.215,36.27,35.821,35.247,33.583
35.514,35.201,36.263000000000005,35.799,35.247,33.551
35.539,35.193000000000005,36.26,35.778,35.25,33.518
35.561,35.191,36.259,35.757,35.254,33.486
35.58,35.194,36.260999999999996,35.738,35.258,33.453
35.592,35.201,36.264,35.72,35.262,33.42
35.597,35.21,36.268,35.703,35.265,33.388000000000005
35.593,35.222,36.271,35.688,35.266,33.357
35.58,35.236999999999995,36.274,35.672,35.266,33.329
35.56,35.253,36.275,35.658,35.266,33.303000000000004
35.531,35.271,36.275,35.644,35.265,33.28
35.493,35.288000000000004,36.275,35.632,35.264,33.259
35.446,35.304,36.273,35.625,35.263000000000005,33.242
35.39,35.317,36.268,35.622,35.260999999999996,33.229
35.327,35.327,36.262,35.624,35.257,33.218
35.259,35.335,36.253,35.631,35.253,33.21
35.186,35.34,36.242,35.641,35.247,33.204
35.11,35.341,36.229,35.65,35.242,33.2
35.031,35.336,36.211999999999996,35.657,35.236,33.198
34.951,35.326,36.191,35.656,35.232,33.196
34.871,35.31,36.166,35.645,35.23,33.195
34.79,35.288000000000004,36.135999999999996,35.624,35.23,33.194
34.711999999999996,35.260999999999996,36.1,35.592,35.231,33.195
34.635999999999996,35.229,36.061,35.551,35.23,33.198
34.565,35.189,36.018,35.506,35.228,33.202
34.498000000000005,35.141999999999996,35.971,35.457,35.221,33.207
34.436,35.088,35.922,35.406,35.208,33.213
34.378,35.027,35.87,35.355,35.189,33.221
34.323,34.959,35.815,35.304,35.162,33.231
34.272,34.887,35.76,35.251999999999995,35.13,33.242
34.226,34.811,35.704,35.198,35.091,33.257
34.186,34.733000000000004,35.649,35.143,35.049,33.278
34.15,34.653,35.593,35.085,35.003,33.309
34.118,34.571,35.538000000000004,35.024,34.955,33.354
34.089,34.488,35.482,34.959,34.905,33.419000000000004
34.063,34.406,35.427,34.891999999999996,34.856,33.507
34.037,34.326,35.372,34.824,34.808,33.624
34.012,34.249,35.316,34.755,34.762,33.774
33.986999999999995,34.175,35.259,34.686,34.718,33.96
33.961999999999996,34.104,35.201,34.618,34.675,34.187
33.938,34.036,35.141,34.552,34.633,34.455
33.914,33.972,35.08,34.49,34.593,34.764
33.891,33.912,35.02,34.433,34.555,35.11
33.87,33.856,34.96,34.381,34.519,35.489000000000004
33.852,33.805,34.900999999999996,34.335,34.485,35.894
33.836,33.757,34.842,34.293,34.453,36.315
33.823,33.711999999999996,34.784,34.257,34.426,36.744
33.813,33.67,34.727,34.227,34.403,37.17
33.805,33.631,34.672,34.201,34.384,37.583
33.799,33.594,34.619,34.178000000000004,34.37,37.974000000000004
33.795,33.56,34.567,34.157,34.358000000000004,38.334
33.793,33.529,34.516,34.135999999999996,34.349000000000004,38.659
33.79,33.499,34.468,34.115,34.341,38.942
33.786,33.47,34.422,34.092,34.332,39.181
33.78,33.443000000000005,34.378,34.065,34.323,39.375
33.773,33.415,34.336,34.033,34.313,39.523
33.764,33.387,34.296,33.996,34.303000000000004,39.626
33.751999999999995,33.359,34.258,33.952,34.292,39.687
33.736999999999995,33.330999999999996,34.224000000000004,33.902,34.283,39.709
33.72,33.302,34.192,33.848,34.274,39.696
33.699,33.272,34.164,33.792,34.268,39.650999999999996
33.675,33.239000000000004,34.14,33.738,34.265,39.579
33.647,33.205,34.12,33.689,34.264,39.486
33.616,33.169000000000004,34.105,33.647,34.264,39.376999999999995
33.584,33.133,34.093,33.611999999999995,34.265,39.257
33.553000000000004,33.097,34.085,33.585,34.266,39.129
33.524,33.061,34.080999999999996,33.565,34.265,38.997
33.5,33.027,34.08,33.549,34.26,38.865
33.483000000000004,32.992,34.082,33.538000000000004,34.251999999999995,38.733000000000004
33.478,32.96,34.086999999999996,33.529,34.24,38.604
33.488,32.929,34.094,33.522,34.223,38.48
33.516999999999996,32.902,34.102,33.513000000000005,34.204,38.36
33.569,32.879,34.111,33.501999999999995,34.181,38.244
33.648,32.861999999999995,34.122,33.486999999999995,34.158,38.132
33.755,32.851,34.134,33.468,34.133,38.022
33.894,32.849000000000004,34.147,33.446999999999996,34.109,37.914
34.064,32.858000000000004,34.161,33.424,34.085,37.805
34.266,32.883,34.175,33.400999999999996,34.062,37.696999999999996
34.498000000000005,32.928000000000004,34.188,33.38,34.038000000000004,37.586999999999996
34.756,32.996,34.2,33.363,34.013000000000005,37.478
35.037,33.091,34.208,33.352,33.988,37.367
35.335,33.218,34.213,33.349000000000004,33.963,37.258
35.645,33.38,34.214,33.358000000000004,33.936,37.149
35.959,33.58,34.21,33.379,33.91,37.043
36.27,33.819,34.201,33.419000000000004,33.884,36.939
36.573,34.097,34.188,33.478,33.861999999999995,36.838
36.861,34.411,34.17,33.559,33.845,36.738
37.129,34.757,34.149,33.664,33.834,36.639
37.373000000000005,35.129,34.125,33.796,33.832,36.542
37.59,35.518,34.098,33.955,33.84,36.446
37.777,35.916,34.069,34.14,33.858000000000004,36.352
37.934,36.315,34.041,34.348,33.889,36.259
38.061,36.705999999999996,34.013000000000005,34.577,33.931999999999995,36.168
38.158,37.08,33.985,34.82,33.986999999999995,36.077
38.227,37.43,33.957,35.071,34.053000000000004,35.985
38.27,37.748000000000005,33.929,35.325,34.131,35.893
38.288000000000004,38.03,33.900999999999996,35.577,34.221,35.798
38.286,38.271,33.875,35.821999999999996,34.324,35.702
38.266999999999996,38.47,33.85,36.058,34.439,35.606
38.234,38.626,33.827,36.282,34.567,35.509
38.19,38.74,33.804,36.493,34.708,35.413000000000004
38.138000000000005,38.815,33.783,36.687,34.859,35.319
38.080999999999996,38.852,33.763000000000005,36.861999999999995,35.018,35.228
38.021,38.855,33.744,37.014,35.181999999999995,35.143
37.961999999999996,38.829,33.728,37.143,35.348,35.065
37.905,38.778,33.713,37.245,35.510999999999996,34.995
37.848,38.705999999999996,33.7,37.323,35.667,34.933
37.785,38.62,33.688,37.376999999999995,35.813,34.881
37.715,38.524,33.679,37.41,35.945,34.839
37.635999999999996,38.424,33.673,37.427,36.061,34.806
37.553000000000004,38.321999999999996,33.674,37.429,36.163000000000004,34.781
37.468,38.221,33.681999999999995,37.422,36.25,34.766999999999996
37.385999999999996,38.124,33.701,37.407,36.321,34.760999999999996
37.311,38.032,33.732,37.385999999999996,36.376999999999995,34.763000000000005
37.247,37.946,33.778,37.36,36.419000000000004,34.774
37.194,37.866,33.842,37.329,36.446,34.792
37.152,37.792,33.928000000000004,37.293,36.461,34.818000000000005
37.12,37.724000000000004,34.036,37.251999999999995,36.464,34.85
37.097,37.662,34.17,37.208,36.458,34.887
37.083,37.604,34.33,37.164,36.446999999999996,34.929
37.074,37.549,34.516999999999996,37.12,36.436,34.974000000000004
37.069,37.496,34.73,37.08,36.425,35.02
37.064,37.444,34.964,37.042,36.418,35.066
37.056,37.391999999999996,35.215,37.008,36.412,35.111
37.045,37.342,35.477,36.975,36.409,35.153
37.028,37.293,35.745,36.945,36.405,35.192
37.004,37.245,36.014,36.915,36.400999999999996,35.228
36.973,37.198,36.278,36.885,36.394,35.26
36.931999999999995,37.150999999999996,36.532,36.854,36.383,35.286
36.882,37.104,36.769,36.823,36.365,35.308
36.824,37.056,36.988,36.792,36.34,35.324
36.758,37.008,37.185,36.762,36.308,35.335
36.685,36.958,37.359,36.733000000000004,36.27,35.339
36.605,36.908,37.512,36.707,36.226,35.336
36.519,36.855,37.641999999999996,36.681999999999995,36.179,35.324
36.427,36.798,37.75,36.658,36.131,35.304
36.333,36.736,37.836999999999996,36.635,36.083,35.277
36.236,36.667,37.904,36.609,36.037,35.244
36.14,36.592,37.954,36.580999999999996,35.995,35.205999999999996
36.045,36.510999999999996,37.986999999999995,36.55,35.957,35.164
35.953,36.422,38.007,36.515,35.923,35.119
35.867,36.327,38.013000000000005,36.477,35.893,35.071
35.787,36.225,38.007,36.438,35.866,35.021
35.715,36.119,37.991,36.398,35.844,34.968
35.65,36.010999999999996,37.967,36.359,35.825,34.911
35.593,35.902,37.936,36.32,35.812,34.85
35.544000000000004,35.795,37.9,36.28,35.803000000000004,34.785
35.504,35.693000000000005,37.859,36.238,35.797,34.714
35.473,35.597,37.814,36.192,35.794000000000004,34.64
35.451,35.509,37.769,36.141,35.792,34.563
35.436,35.433,37.723,36.086999999999996,35.789,34.484
35.427,35.367,37.678000000000004,36.03,35.784,34.405
35.423,35.313,37.635,35.973,35.775,34.328
35.425,35.271,37.593,35.916,35.762,34.254
35.43,35.243,37.555,35.861999999999995,35.743,34.184
35.439,35.227,37.52,35.812,35.718,34.119
35.452,35.223,37.486999999999995,35.766,35.686,34.056999999999995
35.467,35.23,37.457,35.725,35.648,34.0
35.484,35.246,37.427,35.688,35.608000000000004,33.948
35.501999999999995,35.269,37.397,35.656,35.565,33.899
35.52,35.298,37.368,35.628,35.523,33.854
35.539,35.329,37.34,35.605,35.482,33.812
35.559,35.363,37.315,35.586999999999996,35.444,33.774
35.578,35.397,37.29,35.574,35.408,33.739000000000004
35.595,35.433,37.266999999999996,35.566,35.376999999999995,33.705999999999996
35.608000000000004,35.468,37.245,35.563,35.351,33.675
35.616,35.501999999999995,37.224000000000004,35.562,35.332,33.644
35.618,35.535,37.205,35.563,35.318000000000005,33.614000000000004
35.614000000000004,35.564,37.187,35.564,35.31,33.583
35.604,35.588,37.171,35.563,35.306,33.55
35.586999999999996,35.607,37.156,35.56,35.306999999999995,33.516
35.562,35.621,37.141,35.555,35.312,33.481
35.53,35.628,37.124,35.549,35.32,33.446
35.49,35.63,37.105,35.542,35.33,33.414
35.443000000000005,35.626,37.083,35.536,35.342,33.384
35.387,35.616,37.056999999999995,35.529,35.355,33.357
35.325,35.601,37.029,35.523,35.367,33.335
35.258,35.580999999999996,36.996,35.515,35.378,33.316
35.187,35.554,36.958,35.504,35.388000000000005,33.302
35.115,35.521,36.917,35.489000000000004,35.397,33.29
35.042,35.481,36.872,35.469,35.403,33.281
34.97,35.435,36.823,35.443000000000005,35.407,33.275
34.9,35.387,36.771,35.412,35.41,33.271
34.832,35.339,36.716,35.376,35.412,33.268
34.766999999999996,35.289,36.659,35.336999999999996,35.414,33.266
34.705,35.239000000000004,36.6,35.295,35.416,33.265
34.646,35.188,36.54,35.251999999999995,35.419000000000004,33.264
34.591,35.134,36.48,35.208,35.42,33.264
34.539,35.078,36.419000000000004,35.165,35.42,33.265
34.49,35.016999999999996,36.36,35.122,35.418,33.266999999999996
34.442,34.95,36.302,35.078,35.412,33.27
34.395,34.878,36.246,35.034,35.403,33.274
34.348,34.8,36.193000000000005,34.988,35.391,33.278
34.3,34.718,36.143,34.94,35.375,33.281
34.254,34.63,36.097,34.89,35.356,33.284
34.209,34.539,36.056999999999995,34.836999999999996,35.335,33.287
34.165,34.445,36.025,34.782,35.313,33.293
34.121,34.35,36.0,34.724000000000004,35.292,33.306
34.077,34.257,35.981,34.663000000000004,35.271,33.328
34.033,34.168,35.966,34.6,35.251999999999995,33.365
33.991,34.085,35.955,34.536,35.231,33.423
33.949,34.009,35.946,34.471,35.208,33.506
33.91,33.941,35.94,34.407,35.184,33.621
33.873000000000005,33.88,35.935,34.344,35.157,33.77
33.839,33.827,35.93,34.283,35.129,33.959
33.806999999999995,33.782,35.923,34.223,35.1,34.188
33.777,33.744,35.913000000000004,34.164,35.073,34.459
33.751,33.71,35.9,34.106,35.046,34.77
33.728,33.681,35.885,34.049,35.022,35.119
33.709,33.656,35.867,33.998000000000005,34.999,35.499
33.693000000000005,33.634,35.849000000000004,33.955999999999996,34.978,35.905
33.679,33.614000000000004,35.829,33.925,34.958,36.327
33.667,33.595,35.809,33.907,34.936,36.756
33.657,33.576,35.789,33.9,34.911,37.181
33.649,33.554,35.768,33.903,34.884,37.591
33.641,33.529,35.746,33.913000000000004,34.853,37.977
33.634,33.501,35.722,33.928000000000004,34.817,38.33
33.626999999999995,33.469,35.696,33.944,34.778,38.645
33.618,33.435,35.667,33.959,34.736999999999995,38.916
33.606,33.397,35.634,33.971,34.696,39.141999999999996
33.592,33.357,35.597,33.98,34.655,39.32
33.574,33.315,35.556,33.983000000000004,34.618,39.452
33.553000000000004,33.274,35.512,33.98,34.585,39.54
33.528,33.234,35.466,33.971,34.558,39.586
33.501,33.196,35.418,33.954,34.537,39.595
33.472,33.162,35.371,33.93,34.522,39.571999999999996
33.441,33.133,35.321999999999996,33.899,34.510999999999996,39.52
33.41,33.108000000000004,35.275,33.86,34.503,39.446
33.379,33.088,35.227,33.814,34.499,39.353
33.351,33.073,35.18,33.760999999999996,34.498000000000005,39.246
33.325,33.065,35.134,33.703,34.498000000000005,39.129
33.303000000000004,33.063,35.088,33.64,34.5,39.004
33.289,33.068000000000005,35.044000000000004,33.575,34.503,38.875
33.285,33.082,35.0,33.509,34.508,38.744
33.293,33.104,34.957,33.443000000000005,34.515,38.614000000000004
33.316,33.137,34.912,33.378,34.523,38.486
33.357,33.181,34.866,33.318000000000005,34.534,38.361
33.418,33.24,34.821,33.263000000000005,34.547,38.24
33.505,33.318000000000005,34.775999999999996,33.216,34.559,38.122
33.62,33.42,34.734,33.177,34.571,38.007
33.765,33.549,34.695,33.148,34.582,37.893
33.942,33.709,34.657,33.125,34.589,37.781
34.150999999999996,33.904,34.623000000000005,33.109,34.592,37.669000000000004
34.389,34.135,34.591,33.098,34.59,37.558
34.654,34.400999999999996,34.561,33.092,34.583,37.449
34.942,34.698,34.533,33.092,34.571999999999996,37.339
35.248000000000005,35.023,34.506,33.102,34.556999999999995,37.232
35.565,35.37,34.48,33.123000000000005,34.539,37.126
35.887,35.732,34.454,33.162,34.519,37.022
36.207,36.102,34.427,33.221,34.496,36.919000000000004
36.518,36.471,34.399,33.303000000000004,34.471,36.819
36.812,36.830999999999996,34.368,33.41,34.441,36.719
37.085,37.173,34.335,33.542,34.407,36.62
37.333,37.491,34.299,33.699,34.369,36.521
37.554,37.78,34.263000000000005,33.878,34.327,36.422
37.746,38.036,34.228,34.078,34.283,36.323
37.907,38.256,34.195,34.296,34.236999999999995,36.224000000000004
38.038000000000004,38.438,34.164,34.528,34.19,36.124
38.138000000000005,38.582,34.135999999999996,34.771,34.144,36.024
38.21,38.69,34.11,35.02,34.103,35.922
38.256,38.763000000000005,34.086,35.269,34.071,35.82
38.281,38.803000000000004,34.066,35.514,34.049,35.715
38.285,38.813,34.049,35.749,34.039,35.61
38.274,38.798,34.038000000000004,35.971,34.043,35.506
38.248000000000005,38.76,34.032,36.176,34.062,35.403
38.211999999999996,38.704,34.031,36.361,34.097,35.304
38.167,38.634,34.034,36.524,34.147,35.21
38.117,38.553000000000004,34.041,36.666,34.213,35.123000000000005
38.064,38.466,34.053000000000004,36.785,34.294000000000004,35.045
38.009,38.375,34.07,36.884,34.389,34.977
37.952,38.283,34.089,36.966,34.497,34.918
37.895,38.192,34.111,37.032,34.617,34.871
37.839,38.103,34.135,37.085,34.746,34.833
37.783,38.018,34.157,37.126,34.884,34.805
37.729,37.938,34.176,37.155,35.028,34.787
37.676,37.865,34.191,37.174,35.173,34.778
37.624,37.798,34.201,37.181999999999995,35.318000000000005,34.775999999999996
37.573,37.738,34.205,37.181,35.459,34.781
37.521,37.684,34.203,37.17,35.595,34.791
37.471,37.633,34.193000000000005,37.15,35.723,34.805
37.421,37.585,34.175,37.123000000000005,35.84,34.823
37.374,37.538000000000004,34.149,37.091,35.945,34.844
37.328,37.491,34.115,37.054,36.038000000000004,34.868
37.286,37.445,34.076,37.014,36.116,34.893
37.248000000000005,37.399,34.032,36.97,36.18,34.92
37.211999999999996,37.352,33.985,36.924,36.232,34.948
37.179,37.304,33.938,36.873000000000005,36.273,34.975
37.149,37.254,33.891999999999996,36.819,36.305,35.001
37.12,37.203,33.848,36.760999999999996,36.328,35.024
37.091,37.149,33.805,36.701,36.344,35.044000000000004
37.061,37.094,33.765,36.641,36.353,35.06
37.027,37.036,33.727,36.583,36.356,35.071
36.989000000000004,36.974000000000004,33.69,36.527,36.354,35.077
36.946,36.91,33.655,36.475,36.346,35.080999999999996
36.898,36.84,33.624,36.428000000000004,36.335,35.082
36.845,36.766,33.594,36.385,36.321999999999996,35.08
36.784,36.685,33.566,36.345,36.308,35.074
36.716,36.598,33.538000000000004,36.31,36.291,35.064
36.641,36.505,33.509,36.278,36.272,35.049
36.558,36.409,33.48,36.25,36.251999999999995,35.028
36.468,36.309,33.452,36.226,36.23,35.001
36.374,36.208,33.424,36.205,36.205999999999996,34.967
36.277,36.108000000000004,33.397,36.188,36.18,34.926
36.177,36.01,33.372,36.172,36.150999999999996,34.881
36.077,35.914,33.347,36.155,36.119,34.830999999999996
35.979,35.824,33.321999999999996,36.135999999999996,36.085,34.78
35.883,35.74,33.295,36.111999999999995,36.052,34.729
35.793,35.663000000000004,33.269,36.082,36.02,34.678000000000004
35.711,35.594,33.244,36.045,35.991,34.626999999999995
35.641,35.533,33.222,36.001,35.965,34.577
35.580999999999996,35.48,33.205999999999996,35.952,35.943000000000005,34.525999999999996
35.532,35.437,33.198,35.899,35.926,34.476
35.493,35.402,33.2,35.843,35.913000000000004,34.426
35.461999999999996,35.376,33.215,35.784,35.904,34.376999999999995
35.441,35.359,33.248000000000005,35.723,35.899,34.33
35.427,35.349000000000004,33.302,35.662,35.897,34.285
35.42,35.348,33.381,35.601,35.896,34.242
35.421,35.355,33.489000000000004,35.541,35.894,34.2
35.428000000000004,35.367,33.628,35.486,35.89,34.16
35.441,35.385,33.798,35.435,35.884,34.12
35.457,35.406,33.998000000000005,35.389,35.876,34.080999999999996
35.476,35.429,34.227,35.349000000000004,35.863,34.041
35.497,35.452,34.481,35.314,35.847,34.001999999999995
35.519,35.474000000000004,34.756,35.282,35.827,33.964
35.54,35.493,35.048,35.255,35.804,33.925
35.559,35.509,35.35,35.23,35.778,33.888000000000005
35.576,35.522,35.655,35.209,35.75,33.852
35.589,35.53,35.957,35.193000000000005,35.721,33.817
35.598,35.533,36.249,35.181999999999995,35.691,33.783
35.603,35.531,36.524,35.175,35.661,33.749
35.604,35.523,36.78,35.174,35.633,33.717
35.601,35.510999999999996,37.013000000000005,35.177,35.608000000000004,33.685
35.593,35.494,37.221,35.184,35.586999999999996,33.655
35.579,35.473,37.402,35.195,35.571999999999996,33.626999999999995
35.56,35.449,37.555,35.208,35.562,33.602
35.535,35.42,37.679,35.221,35.556,33.577
35.505,35.387,37.774,35.232,35.552,33.553000000000004
35.47,35.351,37.843,35.242,35.549,33.529
35.431,35.311,37.89,35.248000000000005,35.545,33.504
35.388000000000005,35.269,37.915,35.25,35.539,33.481
35.341,35.225,37.922,35.249,35.531,33.459
35.291,35.178000000000004,37.911,35.243,35.519,33.44
35.236,35.129,37.887,35.233000000000004,35.505,33.425
35.179,35.078,37.852,35.218,35.486999999999995,33.413000000000004
35.119,35.023,37.809,35.198,35.467,33.404
35.058,34.966,37.760999999999996,35.172,35.448,33.397
34.997,34.905,37.711,35.141999999999996,35.431999999999995,33.393
34.934,34.843,37.659,35.108000000000004,35.42,33.389
34.869,34.779,37.608000000000004,35.071999999999996,35.414,33.385
34.802,34.714,37.558,35.035,35.413000000000004,33.38
34.734,34.649,37.51,34.996,35.417,33.374
34.664,34.584,37.465,34.957,35.427,33.368
34.594,34.519,37.423,34.916,35.443000000000005,33.36
34.523,34.455999999999996,37.384,34.874,35.465,33.354
34.452,34.394,37.349000000000004,34.829,35.491,33.348
34.38,34.336,37.316,34.781,35.521,33.344
34.309,34.281,37.285,34.729,35.551,33.343
34.239000000000004,34.23,37.255,34.673,35.580999999999996,33.344
34.171,34.181,37.225,34.614000000000004,35.609,33.348
34.105,34.135999999999996,37.195,34.551,35.634,33.357
34.044000000000004,34.093,37.165,34.485,35.653,33.371
33.986999999999995,34.054,37.135,34.417,35.665,33.391999999999996
33.936,34.016,37.105,34.348,35.668,33.421
33.891,33.98,37.077,34.279,35.663000000000004,33.461
33.851,33.945,37.051,34.211,35.648,33.514
33.816,33.91,37.025999999999996,34.144,35.624,33.586
33.786,33.875,37.003,34.078,35.594,33.681
33.760999999999996,33.841,36.981,34.013000000000005,35.561,33.804
33.74,33.806999999999995,36.959,33.949,35.525,33.96
33.723,33.772,36.937,33.887,35.49,34.154
33.709,33.736999999999995,36.915,33.83,35.455,34.39
33.698,33.701,36.893,33.778,35.424,34.668
33.687,33.665,36.871,33.733000000000004,35.397,34.986999999999995
33.677,33.63,36.849000000000004,33.695,35.373000000000005,35.344
33.667,33.595,36.826,33.663000000000004,35.352,35.731
33.657,33.561,36.802,33.635,35.333,36.141999999999996
33.648,33.53,36.775,33.61,35.315,36.566
33.638000000000005,33.503,36.745,33.586,35.296,36.993
33.628,33.482,36.711,33.565,35.275999999999996,37.414
33.616,33.467,36.672,33.545,35.253,37.818000000000005
33.603,33.46,36.628,33.529,35.229,38.198
33.589,33.464,36.578,33.515,35.201,38.546
33.574,33.481,36.523,33.504,35.172,38.859
33.558,33.516,36.461,33.496,35.141,39.132
33.542,33.571,36.391999999999996,33.49,35.109,39.361999999999995
33.525999999999996,33.649,36.318000000000005,33.485,35.077,39.549
33.510999999999996,33.757,36.24,33.483000000000004,35.045,39.693000000000005
33.496,33.896,36.16,33.483000000000004,35.012,39.795
33.484,34.069,36.08,33.484,34.979,39.855
33.473,34.275999999999996,36.001999999999995,33.485,34.945,39.878
33.464,34.516,35.926,33.485,34.909,39.865
33.455999999999996,34.786,35.855,33.482,34.871,39.82
33.449,35.082,35.79,33.474000000000004,34.832,39.748000000000005
33.441,35.398,35.732,33.461999999999996,34.795,39.654
33.431999999999995,35.728,35.681,33.446,34.76,39.543
33.42,36.065,35.641,33.427,34.73,39.417
33.407,36.400999999999996,35.609,33.404,34.707,39.282
33.391999999999996,36.729,35.586,33.379,34.689,39.139
33.376,37.042,35.57,33.353,34.676,38.992
33.358000000000004,37.335,35.56,33.327,34.666,38.843
33.34,37.602,35.555,33.3,34.658,38.693000000000005
33.32,37.838,35.554,33.275,34.65,38.545
33.301,38.041,35.556,33.253,34.641,38.404
33.284,38.211999999999996,35.56,33.233000000000004,34.631,38.275999999999996
33.27,38.349000000000004,35.567,33.215,34.62,38.161
33.260999999999996,38.455999999999996,35.576,33.2,34.61,38.059
33.262,38.533,35.586,33.187,34.602,37.966
33.275999999999996,38.584,35.598,33.175,34.595,37.876999999999995
33.306999999999995,38.61,35.611999999999995,33.165,34.591,37.786
33.361,38.616,35.626999999999995,33.153,34.59,37.692
33.441,38.604,35.64,33.14,34.59,37.593
33.552,38.577,35.650999999999996,33.125,34.59,37.488
33.696999999999996,38.536,35.657,33.107,34.59,37.376999999999995
33.88,38.484,35.659,33.086999999999996,34.589,37.259
34.099000000000004,38.423,35.657,33.066,34.584,37.135999999999996
34.353,38.354,35.65,33.047,34.577,37.008
34.638000000000005,38.279,35.638000000000005,33.03,34.567,36.876999999999995
34.949,38.198,35.621,33.016999999999996,34.555,36.745
35.279,38.113,35.598,33.013000000000005,34.543,36.613
35.622,38.025999999999996,35.571,33.021,34.53,36.484
35.969,37.94,35.539,33.044000000000004,34.516999999999996,36.358000000000004
36.315,37.854,35.503,33.088,34.504,36.235
36.65,37.771,35.463,33.157,34.492,36.115
36.97,37.691,35.42,33.253,34.481,35.998000000000005
37.266,37.616,35.373000000000005,33.378,34.471,35.884
37.535,37.545,35.323,33.532,34.46,35.774
37.774,37.478,35.27,33.714,34.448,35.668
37.979,37.416,35.213,33.921,34.433,35.566
38.15,37.357,35.152,34.148,34.418,35.47
38.286,37.303000000000004,35.085,34.391,34.402,35.381
38.389,37.25,35.012,34.644,34.385999999999996,35.299
38.46,37.198,34.936,34.900999999999996,34.372,35.224000000000004
38.501999999999995,37.145,34.856,35.159,34.359,35.156
38.519,37.089,34.775999999999996,35.413000000000004,34.348,35.095
38.514,37.03,34.696,35.662,34.339,35.041
38.491,36.968,34.616,35.902,34.333,34.994
38.452,36.902,34.537,36.13,34.333,34.953
38.400999999999996,36.832,34.461,36.344,34.341,34.92
38.342,36.757,34.39,36.54,34.358000000000004,34.894
38.275999999999996,36.676,34.325,36.716,34.385999999999996,34.876
38.208,36.59,34.266999999999996,36.871,34.427,34.865
38.139,36.498000000000005,34.217,37.001999999999995,34.482,34.861
38.071,36.400999999999996,34.173,37.11,34.552,34.864000000000004
38.005,36.299,34.137,37.195,34.64,34.873000000000005
37.942,36.194,34.106,37.259,34.744,34.888000000000005
37.882,36.088,34.080999999999996,37.304,34.863,34.907
37.827,35.981,34.061,37.333,34.996,34.931
37.777,35.873000000000005,34.045,37.347,35.138000000000005,34.961
37.731,35.765,34.031,37.349000000000004,35.288000000000004,34.994
37.69,35.661,34.02,37.339,35.441,35.028
37.653,35.561,34.010999999999996,37.319,35.594,35.063
37.621,35.466,34.004,37.29,35.743,35.097
37.593,35.376999999999995,33.999,37.253,35.885,35.128
37.567,35.293,33.996,37.21,36.016999999999996,35.156
37.544000000000004,35.214,33.992,37.165,36.137,35.179
37.52,35.141,33.986999999999995,37.119,36.245,35.196
37.494,35.075,33.981,37.074,36.339,35.207
37.467,35.014,33.975,37.03,36.42,35.213
37.438,34.961,33.967,36.986999999999995,36.488,35.211999999999996
37.405,34.915,33.957,36.943000000000005,36.544000000000004,35.205
37.369,34.879,33.943000000000005,36.899,36.588,35.191
37.329,34.854,33.927,36.854,36.621,35.17
37.284,34.84,33.908,36.809,36.643,35.143
37.234,34.836,33.887,36.765,36.655,35.109
37.177,34.842,33.866,36.725,36.659,35.068000000000005
37.115,34.857,33.845,36.688,36.655,35.023
37.046,34.882,33.823,36.657,36.645,34.974000000000004
36.972,34.913000000000004,33.801,36.633,36.629,34.922
36.891,34.949,33.779,36.614000000000004,36.609,34.868
36.804,34.989000000000004,33.758,36.599000000000004,36.585,34.813
36.711999999999996,35.03,33.738,36.585,36.56,34.757
36.614000000000004,35.071,33.72,36.571,36.532,34.7
36.514,35.111,33.703,36.554,36.501999999999995,34.641999999999996
36.412,35.149,33.687,36.533,36.47,34.584
36.31,35.185,33.671,36.505,36.435,34.527
36.209,35.217,33.656,36.472,36.396,34.47
36.109,35.244,33.643,36.435,36.353,34.416
36.013000000000005,35.264,33.63,36.395,36.308,34.365
35.922,35.278,33.619,36.352,36.260999999999996,34.316
35.839,35.285,33.609,36.308,36.214,34.269
35.763000000000005,35.285,33.6,36.266,36.167,34.225
35.696,35.279,33.591,36.225,36.121,34.181
35.637,35.265,33.580999999999996,36.187,36.079,34.135999999999996
35.586,35.245,33.57,36.15,36.042,34.092
35.543,35.218,33.556999999999995,36.113,36.01,34.048
35.510999999999996,35.185,33.542,36.076,35.983000000000004,34.004
35.486999999999995,35.146,33.524,36.037,35.961999999999996,33.961999999999996
35.472,35.102,33.503,35.997,35.946,33.922
35.466,35.055,33.48,35.955,35.933,33.885
35.467,35.007,33.454,35.911,35.924,33.851
35.475,34.957,33.426,35.863,35.918,33.818000000000005
35.488,34.907,33.398,35.814,35.916,33.787
35.505,34.856,33.371,35.763000000000005,35.916,33.757
35.524,34.805,33.346,35.711999999999996,35.917,33.726
35.545,34.751999999999995,33.325,35.663000000000004,35.918,33.696999999999996
35.567,34.698,33.311,35.617,35.917,33.669000000000004
35.589,34.641,33.308,35.574,35.915,33.644
35.61,34.582,33.319,35.535,35.909,33.621
35.63,34.521,33.346,35.501999999999995,35.9,33.6
35.647,34.46,33.391999999999996,35.475,35.885999999999996,33.58
35.662,34.4,33.461,35.455,35.867,33.56
35.674,34.343,33.554,35.442,35.844,33.54
35.684,34.29,33.674,35.434,35.817,33.519
35.691,34.239000000000004,33.821,35.428000000000004,35.787,33.499
35.695,34.19,33.995,35.423,35.755,33.48
35.695,34.144,34.193000000000005,35.418,35.723,33.461
35.69,34.1,34.415,35.413000000000004,35.688,33.443000000000005
35.681,34.058,34.657,35.409,35.652,33.426
35.664,34.016999999999996,34.915,35.406,35.615,33.41
35.64,33.977,35.184,35.405,35.576,33.393
35.607,33.938,35.46,35.407,35.536,33.376999999999995
35.567,33.9,35.736,35.412,35.494,33.36
35.52,33.863,36.007,35.419000000000004,35.45,33.345
35.469,33.825,36.27,35.426,35.405,33.332
35.413000000000004,33.788000000000004,36.519,35.431,35.36,33.321
35.353,33.751999999999995,36.75,35.433,35.318000000000005,33.312
35.29,33.717,36.96,35.431,35.281,33.306
35.225,33.681999999999995,37.146,35.421,35.251999999999995,33.3
35.158,33.65,37.306,35.400999999999996,35.231,33.295
35.089,33.619,37.439,35.368,35.219,33.289
35.018,33.59,37.545,35.318000000000005,35.214,33.283
34.945,33.564,37.628,35.253,35.217,33.277
34.872,33.543,37.694,35.176,35.226,33.273
34.798,33.528,37.744,35.09,35.239000000000004,33.272
34.726,33.52,37.781,35.0,35.257,33.275
34.654,33.52,37.806,34.908,35.277,33.283
34.585,33.527,37.818000000000005,34.818000000000005,35.298,33.297
34.518,33.544000000000004,37.818000000000005,34.734,35.32,33.318000000000005
34.455,33.57,37.806999999999995,34.66,35.341,33.347
34.396,33.608000000000004,37.783,34.598,35.361,33.382
34.342,33.66,37.749,34.551,35.378,33.428000000000004
34.294000000000004,33.727,37.703,34.518,35.393,33.486
34.251999999999995,33.813,37.647,34.499,35.404,33.561
34.214,33.92,37.583,34.488,35.41,33.658
34.179,34.054,37.510999999999996,34.482,35.411,33.782
34.146,34.215,37.431999999999995,34.477,35.407,33.939
34.114000000000004,34.407,37.348,34.468,35.399,34.135
34.083,34.626999999999995,37.260999999999996,34.454,35.388000000000005,34.373000000000005
34.053000000000004,34.876,37.174,34.433,35.375,34.653
34.024,35.148,37.09,34.405,35.361999999999995,34.975
33.994,35.441,37.009,34.37,35.35,35.332
33.963,35.747,36.933,34.329,35.338,35.721
33.931999999999995,36.06,36.863,34.282,35.329,36.132
33.9,36.375,36.802,34.231,35.321999999999996,36.556999999999995
33.867,36.686,36.747,34.179,35.316,36.986
33.833,36.986,36.7,34.126,35.309,37.41
33.8,37.27,36.659,34.076,35.302,37.82
33.77,37.533,36.622,34.028,35.292,38.205999999999996
33.742,37.77,36.589,33.985,35.281,38.56
33.717,37.979,36.56,33.946,35.266,38.875
33.695,38.157,36.533,33.91,35.247,39.145
33.675,38.303000000000004,36.506,33.876,35.225,39.367
33.656,38.418,36.477,33.842,35.2,39.541
33.639,38.503,36.446999999999996,33.81,35.172,39.666
33.623000000000005,38.56,36.416,33.777,35.141999999999996,39.746
33.608000000000004,38.59,36.384,33.746,35.111,39.784
33.595,38.595,36.35,33.717,35.080999999999996,39.786
33.584,38.576,36.315,33.69,35.051,39.756
33.574,38.537,36.277,33.666,35.024,39.7
33.564,38.482,36.236,33.644,35.004,39.623000000000005
33.555,38.415,36.192,33.624,34.992,39.528
33.547,38.341,36.147,33.606,34.986999999999995,39.42
33.541,38.260999999999996,36.099000000000004,33.591,34.988,39.302
33.535,38.178000000000004,36.048,33.577,34.993,39.176
33.53,38.095,35.994,33.565,35.0,39.045
33.525,38.012,35.935,33.556999999999995,35.008,38.911
33.52,37.931,35.873000000000005,33.553000000000004,35.015,38.775
33.514,37.853,35.809,33.556,35.02,38.638000000000005
33.509,37.778,35.743,33.565,35.022,38.501
33.503,37.707,35.675,33.58,35.019,38.365
33.496,37.639,35.609,33.599000000000004,35.009,38.231
33.489000000000004,37.575,35.545,33.619,34.991,38.1
33.481,37.512,35.486,33.639,34.964,37.973
33.47,37.449,35.431,33.657,34.931,37.85
33.455,37.385999999999996,35.383,33.671,34.891999999999996,37.73
33.438,37.323,35.342,33.68,34.85,37.611999999999995
33.417,37.26,35.308,33.684,34.806,37.497
33.395,37.198,35.282,33.683,34.762,37.383
33.37,37.137,35.262,33.676,34.72,37.272
33.343,37.077,35.25,33.663000000000004,34.681999999999995,37.162
33.315,37.018,35.245,33.644,34.65,37.054
33.286,36.96,35.246,33.62,34.623000000000005,36.95
33.256,36.900999999999996,35.251999999999995,33.592,34.604,36.848
33.227,36.841,35.262,33.56,34.589,36.749
33.201,36.78,35.275,33.524,34.578,36.654
33.181,36.717,35.292,33.486999999999995,34.568000000000005,36.563
33.172,36.652,35.312,33.446999999999996,34.56,36.473
33.177,36.580999999999996,35.333,33.406,34.552,36.385
33.2,36.504,35.355,33.364000000000004,34.543,36.298
33.246,36.419000000000004,35.376999999999995,33.323,34.534,36.211999999999996
33.32,36.328,35.398,33.282,34.524,36.129
33.425,36.23,35.417,33.243,34.513000000000005,36.048
33.567,36.129,35.431999999999995,33.208,34.499,35.969
33.747,36.025,35.444,33.18,34.483000000000004,35.891999999999996
33.967,35.921,35.45,33.16,34.466,35.818000000000005
34.223,35.817,35.452,33.152,34.449,35.747
34.510999999999996,35.714,35.446999999999996,33.16,34.431,35.677
34.827,35.615,35.436,33.188,34.411,35.609
35.165,35.522,35.419000000000004,33.241,34.389,35.544000000000004
35.516999999999996,35.434,35.395,33.321,34.366,35.483000000000004
35.876,35.355,35.365,33.431,34.342,35.426
36.235,35.283,35.327,33.573,34.318000000000005,35.376999999999995
36.584,35.222,35.282,33.744,34.296,35.336
36.918,35.17,35.232,33.945,34.275,35.304
37.231,35.13,35.177,34.173,34.257,35.282
37.518,35.1,35.119,34.424,34.242,35.27
37.775,35.08,35.059,34.693000000000005,34.229,35.266999999999996
37.999,35.073,34.997,34.975,34.219,35.272
38.189,35.077,34.933,35.263000000000005,34.209,35.284
38.344,35.091,34.87,35.549,34.2,35.302
38.463,35.115,34.806999999999995,35.827,34.191,35.325
38.55,35.145,34.744,36.092,34.184,35.352
38.605,35.179,34.681,36.339,34.18,35.381
38.633,35.216,34.618,36.566,34.181999999999995,35.412
38.635999999999996,35.255,34.556,36.771,34.194,35.445
38.619,35.293,34.495,36.953,34.217,35.478
38.584,35.329,34.437,37.111999999999995,34.254,35.51
38.535,35.36,34.381,37.247,34.309,35.543
38.474000000000004,35.388000000000005,34.327,37.358000000000004,34.383,35.574
38.404,35.41,34.274,37.446999999999996,34.478,35.605
38.328,35.427,34.224000000000004,37.512,34.592,35.634
38.248000000000005,35.439,34.176,37.555,34.725,35.66
38.166,35.445,34.13,37.576,34.873000000000005,35.684
38.084,35.445,34.086999999999996,37.578,35.033,35.705
38.003,35.44,34.045,37.566,35.202,35.721
37.924,35.43,34.004,37.542,35.376,35.733000000000004
37.85,35.415,33.963,37.51,35.552,35.739000000000004
37.782,35.396,33.921,37.471,35.727,35.738
37.721,35.372,33.879,37.428000000000004,35.899,35.731
37.666,35.342,33.836999999999996,37.381,36.064,35.716
37.617,35.308,33.794000000000004,37.332,36.218,35.694
37.575,35.271,33.749,37.28,36.36,35.665
37.539,35.23,33.704,37.228,36.488,35.63
37.51,35.186,33.659,37.176,36.601,35.59
37.486999999999995,35.141,33.615,37.126,36.696,35.545
37.467,35.094,33.571,37.077,36.775,35.497
37.449,35.044000000000004,33.527,37.031,36.838,35.446999999999996
37.431999999999995,34.993,33.486,36.989000000000004,36.884,35.395
37.415,34.939,33.446999999999996,36.951,36.917,35.341
37.395,34.883,33.413000000000004,36.917,36.937,35.286
37.371,34.825,33.382,36.885999999999996,36.946,35.228
37.341,34.766,33.356,36.856,36.946,35.168
37.306,34.707,33.334,36.827,36.938,35.105
37.262,34.647,33.317,36.799,36.921,35.041
37.211,34.589,33.304,36.769,36.896,34.975
37.150999999999996,34.531,33.298,36.739000000000004,36.865,34.908
37.084,34.473,33.297,36.709,36.829,34.841
37.009,34.417,33.302,36.68,36.789,34.774
36.928000000000004,34.36,33.312,36.653,36.747,34.708
36.841,34.304,33.326,36.628,36.705,34.644
36.748000000000005,34.25,33.343,36.602,36.662,34.582
36.649,34.198,33.361,36.576,36.619,34.522
36.545,34.149,33.379,36.547,36.575,34.464
36.438,34.104,33.395,36.514,36.532,34.408
36.330999999999996,34.061,33.41,36.478,36.49,34.355
36.224000000000004,34.022,33.421,36.439,36.446999999999996,34.304
36.12,33.984,33.43,36.396,36.405,34.256
36.019,33.948,33.434,36.351,36.364000000000004,34.21
35.921,33.914,33.436,36.303000000000004,36.323,34.168
35.829,33.883,33.434,36.253,36.283,34.129
35.744,33.853,33.428000000000004,36.2,36.246,34.091
35.668,33.826,33.419000000000004,36.146,36.216,34.054
35.6,33.802,33.408,36.086999999999996,36.192,34.016999999999996
35.542,33.779,33.396,36.023,36.175,33.98
35.494,33.758,33.381,35.955999999999996,36.163000000000004,33.944
35.455,33.739000000000004,33.363,35.887,36.156,33.909
35.426,33.722,33.342,35.819,36.154,33.874
35.406,33.708,33.315,35.754,36.156,33.841
35.395,33.696999999999996,33.284,35.696,36.162,33.809
35.391,33.689,33.249,35.644,36.17,33.778
35.391999999999996,33.686,33.208,35.598,36.178000000000004,33.748000000000005
35.399,33.688,33.159,35.556999999999995,36.187,33.719
35.41,33.698,33.1,35.521,36.194,33.692
35.422,33.718,33.036,35.488,36.198,33.665
35.435,33.75,32.969,35.458,36.2,33.641
35.449,33.797,32.904,35.431999999999995,36.198,33.62
35.461999999999996,33.865,32.843,35.411,36.191,33.602
35.473,33.955999999999996,32.79,35.397,36.177,33.588
35.482,34.074,32.746,35.391,36.157,33.579
35.488,34.223,32.715,35.393,36.13,33.573
35.489000000000004,34.404,32.699,35.402,36.098,33.571
35.486,34.619,32.701,35.416,36.063,33.571999999999996
35.481,34.866,32.72,35.433,36.027,33.576
35.472,35.141999999999996,32.76,35.45,35.992,33.583
35.459,35.441,32.821,35.463,35.958,33.59
35.442,35.759,32.908,35.473,35.928000000000004,33.599000000000004
35.422,36.088,33.021,35.478,35.9,33.607
35.399,36.421,33.165,35.479,35.875,33.616
35.373000000000005,36.75,33.339,35.478,35.853,33.623000000000005
35.345,37.066,33.544000000000004,35.475,35.834,33.628
35.315,37.361999999999995,33.78,35.472,35.816,33.631
35.281,37.633,34.045,35.467,35.8,33.633
35.243,37.875,34.335,35.46,35.783,33.634
35.2,38.086,34.644,35.451,35.766,33.635
35.153,38.263000000000005,34.968,35.438,35.751,33.637
35.101,38.408,35.297,35.42,35.736,33.641999999999996
35.045,38.518,35.626,35.396,35.723,33.653
34.986,38.597,35.948,35.368,35.711999999999996,33.673
34.925,38.648,36.255,35.335,35.702,33.703
34.86,38.671,36.544000000000004,35.301,35.691,33.75
34.792,38.671,36.812,35.264,35.681,33.819
34.722,38.650999999999996,37.054,35.226,35.671,33.917
34.650999999999996,38.614000000000004,37.269,35.184,35.661,34.049
34.579,38.564,37.455999999999996,35.139,35.650999999999996,34.221
34.507,38.503,37.614000000000004,35.09,35.643,34.435
34.435,38.431999999999995,37.744,35.035,35.635999999999996,34.694
34.365,38.353,37.845,34.975,35.631,34.995
34.297,38.269,37.921,34.909,35.63,35.334
34.234,38.181999999999995,37.973,34.838,35.631,35.705
34.175,38.093,38.004,34.763000000000005,35.635,36.099000000000004
34.121,38.005,38.016,34.685,35.641,36.507
34.071,37.918,38.010999999999996,34.605,35.645,36.919000000000004
34.025999999999996,37.833,37.991,34.524,35.648,37.327
33.984,37.751999999999995,37.958,34.444,35.648,37.723
33.946999999999996,37.675,37.915,34.369,35.646,38.096
33.912,37.602,37.865,34.3,35.641,38.441
33.88,37.533,37.811,34.238,35.632,38.751999999999995
33.852,37.468,37.753,34.184,35.62,39.022
33.826,37.406,37.694,34.137,35.603,39.25
33.801,37.348,37.634,34.096,35.582,39.435
33.777,37.293,37.575,34.059,35.556,39.577
33.751,37.24,37.519,34.024,35.525999999999996,39.679
33.723,37.188,37.465,33.992,35.493,39.743
33.694,37.135,37.413000000000004,33.961,35.455999999999996,39.772
33.664,37.08,37.364000000000004,33.933,35.415,39.769
33.632,37.022,37.316,33.907,35.371,39.738
33.599000000000004,36.959,37.271,33.885999999999996,35.327,39.681999999999995
33.565,36.891999999999996,37.228,33.868,35.283,39.607
33.531,36.819,37.188,33.852,35.239000000000004,39.515
33.497,36.739000000000004,37.152,33.838,35.198,39.412
33.463,36.653,37.118,33.825,35.16,39.302
33.43,36.56,37.086999999999996,33.811,35.126,39.188
33.4,36.461999999999996,37.059,33.795,35.095,39.071999999999996
33.372,36.361,37.034,33.777,35.066,38.955
33.348,36.257,37.010999999999996,33.757,35.04,38.839
33.328,36.152,36.991,33.735,35.016999999999996,38.723
33.31,36.046,36.973,33.715,34.994,38.609
33.295,35.942,36.957,33.696999999999996,34.971,38.496
33.279,35.84,36.943000000000005,33.685,34.948,38.384
33.259,35.741,36.929,33.678000000000004,34.924,38.272
33.234,35.648,36.914,33.677,34.899,38.16
33.207,35.56,36.897,33.68,34.874,38.048
33.18,35.481,36.878,33.685,34.849000000000004,37.936
33.157,35.409,36.856,33.692,34.825,37.824
33.14,35.348,36.829,33.698,34.799,37.711
33.128,35.297,36.797,33.703,34.771,37.598
33.123000000000005,35.257,36.759,33.705999999999996,34.741,37.486
33.124,35.225,36.715,33.709,34.708,37.376
33.129,35.203,36.667,33.711,34.676,37.27
33.135,35.19,36.614000000000004,33.711999999999996,34.644,37.167
33.141,35.184,36.556999999999995,33.713,34.611999999999995,37.069
33.143,35.186,36.495,33.714,34.583,36.975
33.141999999999996,35.195,36.43,33.716,34.556,36.885
33.135999999999996,35.209,36.361999999999995,33.719,34.533,36.797
33.126,35.227,36.291,33.724000000000004,34.515,36.711
33.111,35.251,36.22,33.729,34.501999999999995,36.625
33.091,35.28,36.148,33.733000000000004,34.494,36.54
33.066,35.312,36.075,33.735,34.491,36.453
33.038000000000004,35.348,36.001999999999995,33.733000000000004,34.491,36.366
33.008,35.385999999999996,35.927,33.726,34.493,36.278
32.979,35.424,35.853,33.715,34.496,36.19
32.951,35.461999999999996,35.78,33.7,34.499,36.102
32.926,35.497,35.71,33.683,34.5,36.014
32.907,35.528,35.645,33.664,34.497,35.927
32.898,35.555,35.586,33.643,34.49,35.841
32.900999999999996,35.577,35.534,33.622,34.48,35.758
32.919000000000004,35.594,35.489000000000004,33.599000000000004,34.469,35.678000000000004
32.955,35.604,35.45,33.573,34.455999999999996,35.604
33.015,35.608000000000004,35.419000000000004,33.543,34.442,35.536
33.102,35.605,35.394,33.509,34.427,35.478
33.22,35.593,35.376,33.469,34.41,35.429
33.372,35.574,35.365,33.427,34.391999999999996,35.391
33.561,35.544000000000004,35.359,33.384,34.373000000000005,35.365
33.788000000000004,35.506,35.357,33.344,34.353,35.349000000000004
34.051,35.458,35.358000000000004,33.309,34.334,35.345
34.348,35.403,35.361999999999995,33.285,34.315,35.35
34.672,35.341,35.367,33.275999999999996,34.297,35.364000000000004
35.018,35.274,35.375,33.284,34.279,35.385
35.378,35.203,35.385,33.313,34.262,35.414
35.746,35.129,35.397,33.365,34.247,35.446999999999996
36.113,35.055,35.41,33.443000000000005,34.233000000000004,35.485
36.472,34.981,35.422,33.548,34.22,35.525
36.813,34.91,35.433,33.681999999999995,34.207,35.568000000000005
37.133,34.843,35.441,33.846,34.194,35.611999999999995
37.426,34.779,35.446,34.039,34.179,35.656
37.69,34.72,35.449,34.260999999999996,34.165,35.698
37.923,34.665,35.446999999999996,34.507,34.153,35.736999999999995
38.122,34.615,35.44,34.773,34.145,35.773
38.286,34.569,35.426,35.052,34.145,35.804
38.416,34.527,35.404,35.336999999999996,34.156,35.828
38.513000000000005,34.488,35.375,35.621,34.181,35.846
38.580999999999996,34.45,35.338,35.899,34.224000000000004,35.857
38.623000000000005,34.414,35.295,36.165,34.288000000000004,35.861
38.641,34.379,35.246,36.417,34.375,35.856
38.638000000000005,34.344,35.191,36.649,34.485,35.843
38.616,34.309,35.131,36.859,34.616,35.823
38.579,34.272,35.068000000000005,37.045,34.766,35.794000000000004
38.53,34.232,35.003,37.207,34.93,35.76
38.472,34.188,34.937,37.343,35.105,35.719
38.406,34.139,34.872,37.455,35.288000000000004,35.674
38.334,34.086999999999996,34.805,37.542,35.474000000000004,35.625
38.259,34.029,34.738,37.604,35.659,35.574
38.184,33.966,34.669000000000004,37.645,35.84,35.521
38.108000000000004,33.899,34.598,37.668,36.012,35.466
38.033,33.83,34.525999999999996,37.675,36.172,35.41
37.96,33.76,34.451,37.671,36.318000000000005,35.354
37.888000000000005,33.69,34.374,37.658,36.446999999999996,35.296
37.817,33.62,34.295,37.639,36.558,35.236999999999995
37.748000000000005,33.553000000000004,34.215,37.616,36.65,35.175
37.681,33.49,34.135999999999996,37.589,36.724000000000004,35.111999999999995
37.615,33.433,34.06,37.558,36.78,35.048
37.552,33.383,33.986,37.524,36.819,34.982
37.493,33.344,33.915,37.486,36.844,34.916
37.436,33.317,33.849000000000004,37.443000000000005,36.857,34.851
37.383,33.304,33.788000000000004,37.397,36.861999999999995,34.786
37.335,33.306999999999995,33.736999999999995,37.349000000000004,36.858000000000004,34.723
37.29,33.329,33.699,37.299,36.85,34.66
37.25,33.373000000000005,33.671,37.251,36.836999999999996,34.599000000000004
37.214,33.441,33.653,37.205999999999996,36.819,34.539
37.181999999999995,33.536,33.641999999999996,37.163000000000004,36.796,34.479
37.153,33.66,33.637,37.123000000000005,36.769,34.422
37.125,33.813,33.635,37.086,36.739000000000004,34.365
37.096,33.997,33.635,37.049,36.704,34.311
37.065,34.21,33.634,37.012,36.666,34.259
37.031,34.451,33.631,36.976,36.626,34.209
36.99,34.716,33.626,36.94,36.583,34.161
36.943000000000005,35.0,33.617,36.904,36.539,34.116
36.888000000000005,35.299,33.606,36.871,36.494,34.075
36.823,35.609,33.593,36.839,36.451,34.036
36.749,35.924,33.578,36.81,36.409,34.0
36.666,36.239000000000004,33.563,36.782,36.369,33.965
36.574,36.547,33.548,36.755,36.332,33.931
36.473,36.841,33.532,36.728,36.299,33.899
36.366,37.119,33.518,36.7,36.266999999999996,33.869
36.254,37.374,33.504,36.669000000000004,36.238,33.842
36.14,37.604,33.494,36.635999999999996,36.209,33.816
36.025999999999996,37.805,33.485,36.6,36.181,33.793
35.915,37.978,33.48,36.563,36.154,33.773
35.808,38.119,33.475,36.524,36.126999999999995,33.756
35.707,38.23,33.472,36.482,36.101,33.742
35.616,38.312,33.468,36.438,36.075,33.731
35.535,38.365,33.464,36.389,36.05,33.721
35.465,38.391999999999996,33.458,36.335,36.024,33.714
35.406,38.396,33.452,36.274,35.998000000000005,33.709
35.358000000000004,38.38,33.444,36.207,35.971,33.705999999999996
35.32,38.348,33.436,36.137,35.942,33.705
35.295,38.302,33.426,36.066,35.911,33.707
35.28,38.247,33.415,35.996,35.876999999999995,33.71
35.277,38.184,33.402,35.93,35.84,33.716
35.283,38.116,33.388000000000005,35.868,35.801,33.722
35.298,38.045,33.371,35.809,35.759,33.729
35.321999999999996,37.974000000000004,33.351,35.75,35.715,33.735
35.352,37.904,33.33,35.693000000000005,35.669000000000004,33.738
35.388000000000005,37.834,33.306,35.634,35.622,33.739000000000004
35.426,37.768,33.283,35.576,35.574,33.736999999999995
35.466,37.705,33.26,35.518,35.525,33.731
35.504,37.647,33.238,35.461999999999996,35.476,33.723
35.539,37.592,33.216,35.41,35.428000000000004,33.711
35.571,37.542,33.193000000000005,35.366,35.38,33.698
35.596,37.495,33.169000000000004,35.330999999999996,35.335,33.684
35.614000000000004,37.45,33.145,35.31,35.294000000000004,33.67
35.624,37.407,33.122,35.302,35.258,33.656
35.626999999999995,37.367,33.1,35.306999999999995,35.229,33.643
35.622,37.328,33.078,35.326,35.208,33.631
35.61,37.29,33.056,35.357,35.196,33.62
35.59,37.253,33.034,35.398,35.189,33.613
35.563,37.216,33.015,35.446999999999996,35.188,33.61
35.529,37.179,33.001,35.501,35.191,33.615
35.489000000000004,37.143,32.994,35.556999999999995,35.194,33.631
35.442,37.106,32.999,35.611999999999995,35.196999999999996,33.663000000000004
35.39,37.067,33.02,35.665,35.198,33.716
35.333,37.024,33.059,35.713,35.196,33.796
35.272,36.977,33.121,35.758,35.192,33.909
35.208,36.927,33.213,35.797,35.186,34.058
35.141999999999996,36.873000000000005,33.336999999999996,35.829,35.179,34.248000000000005
35.075,36.813,33.496,35.851,35.173,34.48
35.008,36.748000000000005,33.689,35.863,35.167,34.756
34.939,36.675,33.917,35.865,35.163000000000004,35.071
34.869,36.596,34.177,35.857,35.16,35.42
34.798,36.510999999999996,34.466,35.839,35.16,35.797
34.726,36.42,34.778,35.815,35.161,36.192
34.653,36.324,35.107,35.786,35.164,36.597
34.579,36.226,35.445,35.753,35.169000000000004,37.003
34.505,36.125,35.785,35.717,35.175,37.400999999999996
34.431,36.024,36.12,35.677,35.18,37.783
34.356,35.923,36.445,35.632,35.185,38.141999999999996
34.279,35.825,36.753,35.583,35.189,38.471
34.202,35.731,37.039,35.528,35.191,38.765
34.123000000000005,35.644,37.299,35.467,35.19,39.02
34.045,35.566,37.529,35.402,35.185,39.234
33.969,35.497,37.727,35.333,35.173,39.407
33.896,35.439,37.893,35.262,35.155,39.538000000000004
33.828,35.391999999999996,38.027,35.191,35.129,39.63
33.766,35.356,38.129,35.121,35.096,39.684
33.71,35.330999999999996,38.201,35.055,35.058,39.705
33.661,35.317,38.247,34.992,35.016,39.694
33.617,35.312,38.27,34.931999999999995,34.969,39.657
33.579,35.317,38.273,34.874,34.921,39.597
33.548,35.329,38.259,34.818000000000005,34.872,39.518
33.523,35.347,38.23,34.760999999999996,34.824,39.425
33.503,35.37,38.192,34.703,34.78,39.321999999999996
33.486999999999995,35.396,38.146,34.645,34.741,39.21
33.473,35.423,38.096,34.585,34.705999999999996,39.093
33.461,35.451,38.044000000000004,34.525,34.675,38.973
33.451,35.478,37.99,34.463,34.645,38.851
33.442,35.503,37.936,34.399,34.615,38.727
33.433,35.525999999999996,37.883,34.332,34.584,38.605
33.426,35.545,37.83,34.262,34.549,38.484
33.419000000000004,35.558,37.778,34.191,34.512,38.365
33.412,35.566,37.727,34.119,34.471,38.249
33.403,35.568000000000005,37.678000000000004,34.051,34.427,38.135
33.391999999999996,35.566,37.63,33.986999999999995,34.379,38.025
33.379,35.559,37.583,33.931,34.330999999999996,37.918
33.364000000000004,35.549,37.538000000000004,33.884,34.283,37.813
33.348,35.534,37.495,33.847,34.236999999999995,37.71
33.329,35.515,37.454,33.82,34.194,37.609
33.308,35.492,37.416,33.801,34.155,37.51
33.284,35.465,37.382,33.79,34.121,37.413000000000004
33.259,35.436,37.35,33.783,34.092,37.315
33.233000000000004,35.403,37.323,33.778,34.068000000000005,37.211999999999996
33.208,35.367,37.299,33.773,34.049,37.104
33.183,35.326,37.278,33.766,34.035,36.992
33.161,35.281,37.259,33.757,34.024,36.879
33.139,35.232,37.241,33.745,34.015,36.768
33.12,35.179,37.223,33.731,34.004,36.661
33.103,35.124,37.205999999999996,33.716,33.99,36.558
33.089,35.065,37.188,33.699,33.97,36.457
33.078,35.005,37.167,33.681999999999995,33.946,36.358000000000004
33.071999999999996,34.943000000000005,37.141999999999996,33.665,33.919000000000004,36.263000000000005
33.071,34.88,37.111999999999995,33.649,33.891,36.17
33.075,34.817,37.077,33.637,33.864000000000004,36.08
33.086999999999996,34.753,37.037,33.626999999999995,33.839,35.991
33.107,34.691,36.992,33.621,33.818000000000005,35.903
33.137,34.631,36.942,33.616,33.802,35.816
33.181,34.576,36.887,33.611,33.789,35.729
33.24,34.524,36.827,33.604,33.781,35.643
33.321999999999996,34.477,36.764,33.594,33.777,35.56
33.429,34.435,36.696999999999996,33.582,33.775999999999996,35.48
33.567,34.398,36.626,33.566,33.779,35.406
33.739000000000004,34.366,36.551,33.549,33.784,35.34
33.944,34.338,36.472,33.53,33.791,35.283
34.183,34.311,36.39,33.509,33.8,35.236999999999995
34.454,34.286,36.305,33.485,33.809,35.202
34.753,34.260999999999996,36.219,33.458,33.816,35.179
35.075,34.236999999999995,36.133,33.427,33.819,35.167
35.416,34.213,36.047,33.391999999999996,33.817,35.166
35.77,34.189,35.964,33.354,33.809,35.175
36.135,34.165,35.885,33.315,33.793,35.194
36.504,34.139,35.812,33.275,33.771,35.221
36.87,34.113,35.747,33.236999999999995,33.744,35.256
37.223,34.086,35.69,33.202,33.715,35.297
37.554,34.058,35.641999999999996,33.171,33.687,35.343
37.854,34.028,35.602,33.143,33.661,35.391
38.116,33.997,35.57,33.119,33.641,35.44
38.336,33.965,35.545,33.097,33.633,35.486999999999995
38.512,33.935,35.527,33.077,33.639,35.531
38.644,33.906,35.515,33.056999999999995,33.661,35.571
38.733000000000004,33.881,35.507,33.039,33.704,35.607
38.782,33.863,35.503,33.023,33.768,35.638000000000005
38.793,33.855,35.501999999999995,33.013000000000005,33.852,35.665
38.771,33.86,35.505,33.013000000000005,33.955999999999996,35.686
38.72,33.884,35.510999999999996,33.025999999999996,34.08,35.703
38.646,33.929,35.519,33.056,34.222,35.715
38.555,33.999,35.528,33.108000000000004,34.381,35.721
38.452,34.097,35.539,33.186,34.555,35.723
38.341,34.226,35.551,33.294000000000004,34.742,35.718
38.226,34.385999999999996,35.564,33.434,34.938,35.708
38.111,34.577,35.578,33.61,35.14,35.692
37.997,34.798,35.592,33.82,35.344,35.671
37.889,35.044000000000004,35.606,34.064,35.546,35.646
37.787,35.311,35.619,34.336,35.742,35.619
37.691,35.595,35.629,34.628,35.927,35.588
37.604,35.89,35.635,34.936,36.096,35.554
37.523,36.19,35.637,35.25,36.248000000000005,35.516
37.451,36.486999999999995,35.633,35.565,36.378,35.475
37.385999999999996,36.775999999999996,35.623000000000005,35.873000000000005,36.488,35.429
37.329,37.05,35.608000000000004,36.17,36.577,35.378
37.279,37.305,35.586999999999996,36.448,36.648,35.321999999999996
37.235,37.534,35.559,36.705,36.7,35.260999999999996
37.195,37.734,35.525,36.938,36.736999999999995,35.196
37.158,37.902,35.485,37.145,36.76,35.129
37.125,38.037,35.439,37.328,36.769,35.06
37.093,38.139,35.385,37.486,36.766,34.989000000000004
37.061,38.209,35.323,37.62,36.753,34.917
37.03,38.251,35.253,37.731,36.731,34.845
36.996,38.268,35.175,37.819,36.702,34.772
36.959,38.265,35.089,37.884,36.668,34.698
36.917,38.248000000000005,34.998000000000005,37.927,36.63,34.625
36.87,38.218,34.903,37.946999999999996,36.591,34.551
36.816,38.181,34.806,37.946,36.552,34.479
36.757,38.139,34.71,37.926,36.514,34.409
36.69,38.093,34.615,37.891999999999996,36.478,34.342
36.617,38.047,34.525,37.846,36.443000000000005,34.278
36.535,37.999,34.438,37.793,36.408,34.218
36.446,37.951,34.356,37.736999999999995,36.371,34.161
36.35,37.900999999999996,34.277,37.681999999999995,36.333,34.108000000000004
36.249,37.847,34.203,37.628,36.294000000000004,34.056999999999995
36.144,37.791,34.135,37.577,36.254,34.01
36.037,37.732,34.07,37.529,36.213,33.966
35.929,37.673,34.01,37.486999999999995,36.172,33.925
35.821,37.615,33.953,37.45,36.131,33.887
35.717,37.559,33.899,37.416,36.093,33.852
35.616,37.506,33.85,37.385,36.056,33.82
35.521,37.457,33.805,37.356,36.021,33.789
35.434,37.412,33.764,37.327,35.989000000000004,33.760999999999996
35.356,37.372,33.728,37.299,35.959,33.734
35.288000000000004,37.336,33.695,37.269,35.93,33.707
35.23,37.306,33.666,37.236999999999995,35.900999999999996,33.681999999999995
35.181999999999995,37.279,33.641999999999996,37.2,35.873000000000005,33.656
35.144,37.256,33.624,37.159,35.845,33.63
35.117,37.234,33.611,37.111,35.82,33.605
35.099000000000004,37.21,33.602,37.058,35.798,33.582
35.091,37.185,33.596,37.0,35.78,33.562
35.091,37.155,33.591,36.941,35.765,33.545
35.097,37.12,33.586999999999996,36.88,35.753,33.531
35.109,37.08,33.584,36.821,35.742,33.52
35.123000000000005,37.035,33.58,36.763000000000005,35.731,33.512
35.141,36.984,33.575,36.707,35.718,33.507
35.16,36.928000000000004,33.569,36.652,35.7,33.504
35.18,36.866,33.562,36.599000000000004,35.675,33.503
35.201,36.799,33.554,36.547,35.643,33.503
35.221,36.727,33.546,36.495,35.602,33.503
35.242,36.652,33.539,36.443000000000005,35.554,33.501999999999995
35.260999999999996,36.574,33.532,36.391999999999996,35.501,33.5
35.279,36.495,33.525,36.341,35.445,33.496
35.296,36.414,33.516999999999996,36.289,35.389,33.492
35.309,36.334,33.508,36.238,35.334,33.485
35.318000000000005,36.254,33.5,36.186,35.282,33.478
35.321999999999996,36.175,33.492,36.132,35.235,33.47
35.32,36.1,33.484,36.076,35.193000000000005,33.463
35.312,36.028,33.475,36.016999999999996,35.155,33.457
35.298,35.961999999999996,33.465,35.955,35.124,33.453
35.278,35.9,33.453,35.891999999999996,35.097,33.449
35.254,35.844,33.441,35.827,35.074,33.446999999999996
35.225,35.794000000000004,33.429,35.764,35.056,33.445
35.192,35.75,33.416,35.704,35.043,33.443000000000005
35.155,35.713,33.400999999999996,35.650999999999996,35.033,33.44
35.115,35.681999999999995,33.383,35.604,35.025999999999996,33.438
35.07,35.657,33.363,35.567,35.022,33.436
35.022,35.638000000000005,33.342,35.539,35.021,33.438
34.97,35.626,33.32,35.519,35.02,33.445
34.915,35.618,33.297,35.508,35.02,33.46
34.856,35.616,33.274,35.503,35.019,33.486
34.793,35.618,33.249,35.505,35.019,33.527
34.727,35.624,33.222,35.51,35.018,33.588
34.657,35.634,33.193000000000005,35.516999999999996,35.016,33.672
34.584,35.647,33.164,35.524,35.014,33.785
34.507,35.662,33.135,35.532,35.012,33.931999999999995
34.429,35.68,33.108000000000004,35.541,35.013000000000005,34.119
34.35,35.698,33.083,35.55,35.015,34.347
34.271,35.717,33.06,35.56,35.02,34.617
34.193000000000005,35.736,33.04,35.568000000000005,35.027,34.929
34.116,35.754,33.023,35.574,35.035,35.279
34.042,35.768,33.01,35.576,35.043,35.659
33.971,35.779,33.003,35.574,35.051,36.063
33.904,35.785,33.001,35.566,35.056,36.48
33.841,35.786,33.007,35.554,35.059,36.899
33.783,35.782,33.024,35.539,35.056999999999995,37.312
33.728,35.772,33.056,35.519,35.048,37.708
33.677,35.756,33.107,35.498000000000005,35.031,38.080999999999996
33.63,35.734,33.181999999999995,35.474000000000004,35.006,38.422
33.586,35.705,33.283,35.451,34.973,38.728
33.547,35.671,33.416,35.426,34.934,38.993
33.512,35.629,33.580999999999996,35.398,34.891,39.217
33.481,35.58,33.781,35.366,34.845,39.398
33.455,35.525,34.015,35.329,34.797,39.537
33.433,35.465,34.281,35.285,34.746,39.635999999999996
33.414,35.402,34.576,35.234,34.695,39.696999999999996
33.398,35.336999999999996,34.894,35.177,34.644,39.722
33.385,35.268,35.228,35.114000000000004,34.594,39.715
33.372,35.198,35.571999999999996,35.049,34.547,39.679
33.361,35.126,35.918,34.983000000000004,34.503,39.617
33.35,35.055,36.26,34.917,34.461,39.534
33.338,34.985,36.589,34.85,34.422,39.434
33.325,34.918,36.899,34.781,34.384,39.321999999999996
33.31,34.855,37.181999999999995,34.709,34.348,39.202
33.294000000000004,34.794000000000004,37.436,34.634,34.313,39.079
33.277,34.735,37.659,34.555,34.278,38.954
33.259,34.68,37.848,34.473,34.241,38.83
33.241,34.626999999999995,38.005,34.39,34.203,38.708
33.224000000000004,34.576,38.13,34.306999999999995,34.162,38.586999999999996
33.208,34.525999999999996,38.225,34.224000000000004,34.119,38.467
33.192,34.479,38.292,34.143,34.073,38.348
33.176,34.434,38.333,34.063,34.027,38.228
33.161,34.389,38.353,33.984,33.981,38.106
33.146,34.346,38.353,33.907,33.937,37.984
33.13,34.304,38.336999999999996,33.832,33.895,37.861
33.116,34.262,38.308,33.760999999999996,33.858000000000004,37.736999999999995
33.101,34.222,38.269,33.693000000000005,33.827,37.614000000000004
33.086999999999996,34.185,38.223,33.626999999999995,33.802,37.493
33.071,34.150999999999996,38.171,33.563,33.782,37.373000000000005
33.056,34.12,38.116,33.501999999999995,33.766999999999996,37.256
33.039,34.093,38.059,33.444,33.756,37.141
33.022,34.07,38.0,33.391,33.748000000000005,37.029
33.004,34.049,37.941,33.343,33.743,36.919000000000004
32.985,34.033,37.883,33.301,33.74,36.812
32.964,34.019,37.826,33.265,33.736999999999995,36.708
32.942,34.008,37.772,33.236,33.734,36.606
32.917,33.996,37.722,33.211,33.729,36.506
32.891,33.984,37.674,33.191,33.722,36.409
32.865,33.97,37.631,33.174,33.714,36.314
32.839,33.954,37.591,33.159,33.705,36.22
32.819,33.937,37.553000000000004,33.143,33.695,36.126999999999995
32.806,33.918,37.516,33.126,33.684,36.034
32.806,33.9,37.482,33.105,33.671,35.942
32.823,33.884,37.449,33.082,33.656,35.85
32.864000000000004,33.87,37.417,33.058,33.64,35.758
32.935,33.863,37.385999999999996,33.034,33.623000000000005,35.668
33.04,33.865,37.355,33.012,33.603,35.579
33.186,33.88,37.325,32.993,33.58,35.493
33.376,33.912,37.296,32.976,33.555,35.41
33.61,33.963,37.268,32.961999999999996,33.527,35.332
33.889,34.038000000000004,37.242,32.95,33.496,35.26
34.208,34.14,37.218,32.94,33.463,35.194
34.563,34.27,37.194,32.931,33.43,35.135999999999996
34.946,34.429,37.171,32.921,33.396,35.086
35.349000000000004,34.618,37.148,32.911,33.365,35.044000000000004
35.762,34.836999999999996,37.126,32.9,33.338,35.012
36.175,35.083,37.103,32.887,33.319,34.988
36.578,35.35,37.077,32.874,33.311,34.974000000000004
36.963,35.635,37.047,32.86,33.316,34.971
37.321,35.928000000000004,37.012,32.847,33.336999999999996,34.976
37.647,36.226,36.97,32.836,33.376999999999995,34.991
37.936,36.519,36.922,32.828,33.439,35.013000000000005
38.184,36.8,36.866,32.823,33.525,35.043
38.389,37.065,36.802,32.819,33.635999999999996,35.078
38.55,37.306,36.733000000000004,32.815,33.772,35.117
38.669000000000004,37.522,36.657,32.81,33.931999999999995,35.16
38.749,37.71,36.578,32.802,34.116,35.207
38.793,37.869,36.496,32.791,34.318000000000005,35.255
38.806999999999995,38.0,36.414,32.778,34.537,35.306
38.794000000000004,38.104,36.329,32.764,34.766,35.356
38.759,38.181,36.243,32.748000000000005,35.001999999999995,35.404
38.707,38.234,36.155,32.731,35.238,35.45
38.641999999999996,38.264,36.068000000000005,32.714,35.469,35.491
38.568000000000005,38.274,35.984,32.698,35.691,35.525999999999996
38.49,38.268,35.905,32.681999999999995,35.899,35.552
38.41,38.246,35.832,32.665,36.09,35.57
38.330999999999996,38.211999999999996,35.766999999999996,32.648,36.262,35.578
38.254,38.168,35.711999999999996,32.63,36.415,35.578
38.181,38.115,35.669000000000004,32.614000000000004,36.548,35.569
38.113,38.056999999999995,35.638000000000005,32.6,36.662,35.553000000000004
38.048,37.994,35.618,32.591,36.756,35.531
37.986999999999995,37.928000000000004,35.61,32.592,36.830999999999996,35.503
37.93,37.856,35.611,32.608000000000004,36.889,35.47
37.875,37.781,35.621,32.645,36.931,35.431
37.821999999999996,37.702,35.639,32.708,36.958,35.387
37.771,37.62,35.664,32.802,36.97,35.338
37.722,37.539,35.692,32.931999999999995,36.969,35.283
37.678000000000004,37.459,35.721,33.1,36.957,35.223
37.64,37.382,35.749,33.309,36.937,35.158
37.608000000000004,37.31,35.771,33.556,36.91,35.091
37.579,37.244,35.788000000000004,33.84,36.88,35.022
37.549,37.185,35.799,34.157,36.848,34.953
37.514,37.135999999999996,35.805,34.5,36.816,34.884
37.474000000000004,37.094,35.805,34.861999999999995,36.784,34.816
37.427,37.061,35.798,35.236,36.751,34.748000000000005
37.372,37.035,35.784,35.614000000000004,36.716,34.681
37.309,37.016,35.765,35.988,36.681,34.613
37.24,37.003,35.74,36.35,36.644,34.547
37.165,36.993,35.711,36.695,36.607,34.481
37.085,36.985,35.677,37.016,36.571,34.417
37.001999999999995,36.978,35.639,37.308,36.536,34.355
36.915,36.968,35.599000000000004,37.564,36.5,34.294000000000004
36.824,36.954,35.556999999999995,37.781,36.464,34.234
36.73,36.931999999999995,35.512,37.953,36.427,34.175
36.633,36.902,35.463,38.080999999999996,36.389,34.117
36.534,36.864000000000004,35.411,38.166,36.351,34.058
36.433,36.817,35.357,38.213,36.314,33.999
36.332,36.762,35.301,38.23,36.278,33.939
36.23,36.699,35.244,38.222,36.243,33.88
36.128,36.63,35.186,38.196999999999996,36.211999999999996,33.821
36.027,36.555,35.126,38.16,36.184,33.764
35.928000000000004,36.476,35.065,38.116,36.161,33.71
35.832,36.396,35.001999999999995,38.069,36.143,33.659
35.742,36.313,34.939,38.022,36.13,33.611
35.657,36.231,34.875,37.975,36.118,33.566
35.58,36.149,34.81,37.93,36.107,33.523
35.51,36.07,34.743,37.888000000000005,36.093,33.482
35.448,35.995,34.674,37.848,36.077,33.442
35.393,35.925,34.602,37.806999999999995,36.056,33.403
35.346,35.86,34.53,37.764,36.031,33.368
35.306,35.801,34.457,37.719,36.001999999999995,33.336
35.275,35.748000000000005,34.385999999999996,37.67,35.968,33.308
35.251999999999995,35.701,34.316,37.619,35.93,33.283
35.236,35.662,34.249,37.567,35.889,33.262
35.227,35.629,34.184,37.515,35.846,33.242
35.224000000000004,35.603,34.124,37.464,35.802,33.225
35.227,35.583,34.069,37.414,35.758,33.208
35.236,35.57,34.02,37.363,35.714,33.193000000000005
35.251,35.562,33.976,37.312,35.669000000000004,33.178000000000004
35.269,35.561,33.937,37.260999999999996,35.624,33.165
35.291,35.565,33.902,37.209,35.579,33.155
35.314,35.574,33.871,37.157,35.536,33.148
35.338,35.586,33.843,37.105,35.494,33.145
35.361999999999995,35.603,33.816,37.056999999999995,35.453,33.145
35.385999999999996,35.623000000000005,33.79,37.012,35.412,33.148
35.409,35.645,33.763000000000005,36.973,35.373000000000005,33.150999999999996
35.43,35.667,33.736,36.939,35.336,33.156
35.446999999999996,35.688,33.708,36.909,35.302,33.159
35.458,35.707,33.681,36.882,35.271,33.162
35.463,35.723,33.654,36.855,35.244,33.165
35.46,35.736,33.628,36.827,35.222,33.168
35.449,35.745,33.602,36.795,35.205999999999996,33.172
35.43,35.75,33.576,36.76,35.196999999999996,33.175
35.403,35.75,33.549,36.72,35.194,33.178000000000004
35.367,35.747,33.524,36.675,35.198,33.18
35.323,35.738,33.501,36.626999999999995,35.208,33.181
35.271,35.724000000000004,33.479,36.574,35.222,33.181999999999995
35.213,35.704,33.459,36.518,35.241,33.181
35.150999999999996,35.679,33.44,36.458,35.262,33.181
35.085,35.648,33.42,36.394,35.285,33.181
35.016,35.611,33.4,36.326,35.306999999999995,33.184
34.945,35.57,33.383,36.254,35.328,33.19
34.871,35.522,33.369,36.178000000000004,35.347,33.2
34.797,35.47,33.359,36.1,35.361,33.216
34.721,35.414,33.352,36.021,35.369,33.243
34.645,35.355,33.348,35.943000000000005,35.372,33.283
34.569,35.294000000000004,33.346,35.868,35.368,33.343
34.496,35.232,33.346,35.8,35.359,33.427
34.424,35.168,33.35,35.74,35.347,33.543
34.354,35.105,33.356,35.687,35.33,33.696
34.286,35.042,33.365,35.641999999999996,35.311,33.891999999999996
34.219,34.98,33.374,35.603,35.288000000000004,34.132
34.154,34.919000000000004,33.383,35.571,35.264,34.417
34.09,34.859,33.391,35.544000000000004,35.236999999999995,34.746
34.029,34.801,33.396,35.524,35.21,35.113
33.971,34.746,33.398,35.512,35.181999999999995,35.510999999999996
33.914,34.694,33.393,35.507,35.152,35.931
33.859,34.644,33.383,35.509,35.124,36.363
33.805,34.596,33.366,35.518,35.096,36.796
33.751999999999995,34.55,33.342,35.532,35.069,37.222
33.699,34.505,33.314,35.55,35.042,37.633
33.646,34.461999999999996,33.279,35.568000000000005,35.014,38.023
33.594,34.42,33.239000000000004,35.585,34.986,38.381
33.544000000000004,34.378,33.194,35.597,34.954,38.7
33.496,34.336,33.146,35.605,34.918,38.977
33.452,34.294000000000004,33.096,35.606,34.876,39.208
33.412,34.253,33.046,35.602,34.828,39.39
33.376,34.213,32.998000000000005,35.593,34.775999999999996,39.524
33.344,34.175,32.953,35.580999999999996,34.72,39.61
33.317,34.14,32.91,35.565,34.661,39.652
33.296,34.107,32.87,35.545,34.601,39.656
33.278,34.078,32.836,35.519,34.542,39.626
33.265,34.052,32.81,35.488,34.485,39.569
33.255,34.027,32.795,35.452,34.431,39.49
33.248000000000005,34.003,32.793,35.411,34.381,39.393
33.243,33.979,32.806999999999995,35.366,34.335,39.283
33.241,33.954,32.839,35.317,34.291,39.164
33.239000000000004,33.929,32.894,35.265,34.247,39.039
33.239000000000004,33.903,32.976,35.211,34.203,38.908
33.239000000000004,33.876,33.089,35.154,34.159,38.775
33.236,33.85,33.236,35.095,34.113,38.641
33.229,33.823,33.421,35.035,34.067,38.505
33.219,33.797,33.643,34.973,34.02,38.367
33.205,33.772,33.900999999999996,34.907,33.975,38.225
33.187,33.751,34.194,34.836999999999996,33.931,38.08
33.165,33.735,34.515,34.765,33.891999999999996,37.934
33.141,33.726,34.86,34.692,33.858000000000004,37.785
33.113,33.725,35.222,34.617,33.833,37.635999999999996
33.080999999999996,33.738,35.593,34.541,33.815,37.489000000000004
33.048,33.769,35.966,34.465,33.805,37.346
33.013000000000005,33.823,36.332,34.387,33.801,37.207
32.978,33.904,36.685,34.306,33.8,37.071999999999996
32.944,34.013000000000005,37.018,34.222,33.801,36.939
32.912,34.150999999999996,37.327,34.133,33.803000000000004,36.809
32.881,34.32,37.608000000000004,34.041,33.803000000000004,36.681
32.852,34.516999999999996,37.858000000000004,33.946,33.798,36.556
32.825,34.742,38.077,33.849000000000004,33.79,36.433
32.801,34.99,38.262,33.754,33.775999999999996,36.313
32.781,35.257,38.413000000000004,33.661,33.757,36.198
32.765,35.539,38.531,33.573,33.734,36.086999999999996
32.755,35.83,38.617,33.489000000000004,33.707,35.981
32.754,36.123000000000005,38.674,33.412,33.678000000000004,35.88
32.762,36.414,38.705999999999996,33.341,33.647,35.782
32.784,36.694,38.717,33.277,33.614000000000004,35.686
32.824,36.96,38.71,33.22,33.582,35.591
32.884,37.207,38.689,33.172,33.551,35.497
32.971,37.43,38.658,33.133,33.522,35.403
33.086999999999996,37.626999999999995,38.619,33.099000000000004,33.496,35.31
33.239000000000004,37.794000000000004,38.574,33.07,33.473,35.22
33.429,37.931999999999995,38.525999999999996,33.044000000000004,33.454,35.135
33.657,38.04,38.474000000000004,33.02,33.438,35.055
33.923,38.119,38.419000000000004,32.996,33.427,34.984
34.223,38.171,38.361,32.972,33.425,34.92
34.554,38.199,38.301,32.949,33.435,34.864000000000004
34.909,38.205,38.238,32.928000000000004,33.46,34.814
35.282,38.192,38.173,32.909,33.503,34.77
35.665,38.165,38.105,32.893,33.568000000000005,34.733000000000004
36.051,38.126,38.034,32.881,33.657,34.702
36.431,38.077,37.961999999999996,32.872,33.771,34.678000000000004
36.798,38.022,37.889,32.868,33.911,34.664
37.145,37.96,37.817,32.869,34.074,34.659
37.467,37.895,37.747,32.873000000000005,34.26,34.665
37.758,37.827,37.68,32.881,34.466,34.681999999999995
38.014,37.758,37.617,32.893,34.688,34.709
38.233000000000004,37.688,37.556999999999995,32.906,34.924,34.744
38.413000000000004,37.618,37.503,32.921,35.171,34.786
38.555,37.55,37.454,32.935,35.423,34.833
38.663000000000004,37.484,37.41,32.946999999999996,35.676,34.882
38.738,37.422,37.372,32.957,35.924,34.931999999999995
38.781,37.364000000000004,37.336999999999996,32.964,36.16,34.982
38.795,37.309,37.304,32.965,36.381,35.032
38.783,37.254,37.27,32.961,36.583,35.08
38.751,37.196999999999996,37.234,32.951,36.764,35.128
38.702,37.139,37.196,32.934,36.921,35.175
38.639,37.08,37.156,32.911,37.054,35.219
38.565,37.023,37.113,32.881,37.163000000000004,35.259
38.482,36.969,37.066,32.845,37.247,35.295
38.393,36.918,37.016,32.803000000000004,37.308,35.324
38.302,36.871,36.961999999999996,32.755,37.349000000000004,35.346
38.209,36.827,36.904,32.705,37.369,35.361
38.118,36.786,36.844,32.656,37.37,35.369
38.029,36.747,36.78,32.609,37.355,35.369
37.942,36.71,36.713,32.568000000000005,37.326,35.364000000000004
37.857,36.672,36.643,32.537,37.283,35.352
37.775,36.632,36.569,32.518,37.231,35.334
37.699,36.59,36.492,32.516,37.171,35.308
37.626999999999995,36.543,36.412,32.533,37.11,35.275
37.562,36.493,36.329,32.571999999999996,37.049,35.234
37.501999999999995,36.438,36.245,32.635999999999996,36.992,35.185
37.446999999999996,36.376999999999995,36.16,32.73,36.939,35.129
37.396,36.311,36.077,32.857,36.89,35.067
37.349000000000004,36.24,36.0,33.02,36.846,34.998000000000005
37.306,36.166,35.928000000000004,33.221,36.805,34.925
37.265,36.088,35.865,33.459,36.766999999999996,34.849000000000004
37.225,36.008,35.809,33.735,36.732,34.77
37.186,35.928000000000004,35.762,34.044000000000004,36.7,34.69
37.147,35.849000000000004,35.724000000000004,34.382,36.669000000000004,34.61
37.107,35.772,35.696999999999996,34.74,36.639,34.528
37.065,35.698,35.68,35.114000000000004,36.61,34.446
37.02,35.629,35.672,35.494,36.583,34.363
36.973,35.564,35.672,35.873000000000005,36.555,34.28
36.922,35.505,35.679,36.244,36.527,34.198
36.865,35.451,35.691,36.598,36.499,34.116
36.802,35.403,35.707,36.929,36.469,34.036
36.732,35.363,35.725,37.233000000000004,36.436,33.959
36.655,35.329,35.744,37.504,36.4,33.885
36.571,35.303000000000004,35.763000000000005,37.739000000000004,36.361,33.815
36.48,35.285,35.779,37.938,36.321,33.749
36.381,35.275,35.794000000000004,38.1,36.281,33.689
36.275,35.272,35.808,38.227,36.241,33.633
36.162,35.275999999999996,35.819,38.321,36.202,33.582
36.045,35.287,35.828,38.385999999999996,36.166,33.535
35.926,35.304,35.836,38.425,36.132,33.492
35.809,35.327,35.84,38.441,36.102,33.451
35.696,35.353,35.842,38.438,36.075,33.412
35.591,35.381,35.839,38.417,36.049,33.374
35.495,35.411,35.832,38.382,36.023,33.338
35.41,35.44,35.819,38.335,35.993,33.305
35.336,35.467,35.801,38.278,35.96,33.274
35.274,35.491,35.775999999999996,38.211999999999996,35.923,33.245
35.225,35.512,35.744,38.141,35.883,33.221
35.188,35.529,35.704,38.067,35.841,33.2
35.165,35.54,35.658,37.994,35.796,33.183
35.154,35.545,35.605,37.924,35.749,33.167
35.152,35.542,35.546,37.859,35.7,33.154
35.159,35.534,35.481,37.798,35.649,33.141
35.173,35.518,35.412,37.741,35.595,33.13
35.192,35.495,35.341,37.688,35.541,33.119
35.217,35.465,35.266999999999996,37.635999999999996,35.488,33.11
35.244,35.428000000000004,35.19,37.583,35.437,33.102
35.272,35.383,35.109,37.528,35.389,33.097
35.298,35.333,35.024,37.471,35.346,33.095
35.323,35.277,34.937,37.41,35.311,33.097
35.345,35.216,34.847,37.348,35.285,33.102
35.364000000000004,35.15,34.756,37.286,35.269,33.107
35.381,35.08,34.663000000000004,37.225,35.262,33.113
35.393,35.007,34.57,37.166,35.260999999999996,33.118
35.4,34.934,34.477,37.11,35.265,33.123000000000005
35.400999999999996,34.859,34.387,37.058,35.273,33.126999999999995
35.398,34.784,34.302,37.009,35.282,33.13
35.388000000000005,34.71,34.221,36.965,35.292,33.133
35.374,34.637,34.147,36.922,35.301,33.137
35.353,34.566,34.077,36.88,35.31,33.14
35.329,34.499,34.013000000000005,36.838,35.317,33.141999999999996
35.305,34.435,33.954,36.793,35.321999999999996,33.145
35.286,34.374,33.900999999999996,36.746,35.325,33.148
35.27,34.316,33.854,36.695,35.328,33.150999999999996
35.256,34.262,33.812,36.641,35.33,33.156
35.24,34.211999999999996,33.775,36.584,35.330999999999996,33.161
35.221,34.166,33.743,36.524,35.330999999999996,33.17
35.195,34.124,33.714,36.461,35.33,33.185
35.158,34.084,33.69,36.395,35.329,33.208
35.109,34.046,33.67,36.328,35.326,33.244
35.046,34.01,33.652,36.258,35.323,33.296
34.969,33.975,33.635999999999996,36.185,35.319,33.371
34.88,33.94,33.622,36.11,35.315,33.474000000000004
34.781,33.905,33.609,36.032,35.31,33.611
34.674,33.871,33.597,35.952,35.306,33.789
34.561,33.838,33.586999999999996,35.868,35.302,34.013000000000005
34.444,33.806,33.578,35.782,35.298,34.284
34.326,33.775,33.569,35.696,35.292,34.602
34.21,33.746,33.56,35.614000000000004,35.282,34.963
34.097,33.72,33.551,35.536,35.266999999999996,35.361
33.989000000000004,33.695,33.542,35.465,35.243,35.787
33.888000000000005,33.673,33.533,35.403,35.21,36.23
33.796,33.650999999999996,33.524,35.35,35.165,36.678000000000004
33.711999999999996,33.629,33.516,35.308,35.11,37.121
33.637,33.607,33.506,35.275,35.045,37.547
33.571,33.585,33.497,35.253,34.971,37.946999999999996
33.512,33.563,33.488,35.239000000000004,34.89,38.313
33.461999999999996,33.542,33.48,35.233000000000004,34.805,38.639
33.42,33.523,33.471,35.233000000000004,34.72,38.923
33.385,33.507,33.461999999999996,35.24,34.637,39.162
33.356,33.494,33.451,35.251,34.559,39.356
33.332,33.485,33.438,35.265,34.488,39.506
33.313,33.483000000000004,33.423,35.282,34.426,39.614000000000004
33.297,33.492,33.408,35.3,34.371,39.683
33.284,33.516,33.391999999999996,35.318000000000005,34.324,39.714
33.271,33.559,33.376999999999995,35.334,34.282,39.713
33.259,33.623000000000005,33.361,35.348,34.245,39.683
33.248000000000005,33.713,33.345,35.36,34.211999999999996,39.629
33.236,33.83,33.328,35.368,34.181,39.554
33.223,33.977,33.311,35.374,34.149,39.461999999999996
33.208,34.153,33.293,35.375,34.118,39.359
33.192,34.358000000000004,33.273,35.373000000000005,34.086999999999996,39.248000000000005
33.174,34.59,33.251999999999995,35.369,34.056,39.13
33.156,34.845,33.229,35.361999999999995,34.024,39.009
33.137,35.118,33.205,35.353,33.993,38.885
33.116,35.404,33.18,35.34,33.961999999999996,38.76
33.095,35.695,33.154,35.324,33.931,38.633
33.071999999999996,35.985,33.128,35.301,33.900999999999996,38.505
33.047,36.269,33.102,35.271,33.872,38.374
33.021,36.543,33.076,35.23,33.844,38.241
32.993,36.801,33.053000000000004,35.179,33.817,38.105
32.963,37.04,33.035,35.117,33.79,37.966
32.934,37.255,33.025,35.045,33.764,37.826
32.905,37.443000000000005,33.03,34.967,33.739000000000004,37.686
32.876,37.604,33.054,34.883,33.717,37.549
32.847,37.735,33.101,34.796,33.696999999999996,37.415
32.821,37.836999999999996,33.178000000000004,34.708,33.68,37.284
32.797,37.911,33.287,34.619,33.665,37.158
32.777,37.959,33.435,34.53,33.65,37.035
32.760999999999996,37.984,33.622,34.443000000000005,33.635999999999996,36.915
32.748000000000005,37.989000000000004,33.851,34.355,33.623000000000005,36.798
32.741,37.978,34.117,34.266,33.611999999999995,36.681999999999995
32.741,37.951,34.415,34.174,33.601,36.567
32.749,37.911,34.739000000000004,34.08,33.591,36.454
32.768,37.861999999999995,35.080999999999996,33.982,33.582,36.342
32.8,37.805,35.434,33.882,33.571999999999996,36.231
32.851,37.744,35.788000000000004,33.781,33.563,36.122
32.926,37.68,36.135999999999996,33.681,33.556,36.014
33.031,37.613,36.471,33.584,33.549,35.909
33.17,37.546,36.785,33.489000000000004,33.543,35.806999999999995
33.346,37.477,37.075,33.399,33.537,35.709
33.559,37.408,37.338,33.313,33.531,35.614000000000004
33.812,37.339,37.57,33.239000000000004,33.523,35.523
34.101,37.271,37.771,33.178000000000004,33.515,35.435
34.426,37.205,37.942,33.131,33.508,35.352
34.778,37.143,38.085,33.096,33.505,35.273
35.153,37.086,38.199,33.074,33.507,35.201
35.542,37.033,38.285,33.06,33.52,35.135
35.935,36.983000000000004,38.343,33.054,33.547,35.076
36.326,36.937,38.372,33.051,33.594,35.025
36.705,36.895,38.376,33.049,33.665,34.98
37.066,36.856,38.356,33.048,33.763000000000005,34.942
37.402,36.821999999999996,38.314,33.043,33.891,34.91
37.707,36.789,38.255,33.034,34.048,34.884
37.977,36.758,38.181999999999995,33.02,34.233000000000004,34.863
38.21,36.727,38.1,33.001999999999995,34.443000000000005,34.849000000000004
38.405,36.696,38.014,32.977,34.674,34.842
38.562,36.664,37.928000000000004,32.948,34.921,34.843
38.68,36.626999999999995,37.844,32.914,35.178000000000004,34.852
38.762,36.586,37.763000000000005,32.878,35.441,34.869
38.811,36.539,37.687,32.84,35.704,34.893
38.83,36.486,37.616,32.802,35.961,34.923
38.821999999999996,36.425,37.551,32.766999999999996,36.205999999999996,34.959
38.793,36.358000000000004,37.49,32.736,36.435,34.997
38.746,36.284,37.435,32.71,36.641999999999996,35.037
38.684,36.205,37.384,32.689,36.826,35.076
38.61,36.121,37.336,32.671,36.986999999999995,35.113
38.527,36.034,37.292,32.656,37.125,35.147
38.437,35.944,37.251,32.641999999999996,37.24,35.179
38.344,35.852,37.211,32.626999999999995,37.334,35.208
38.249,35.76,37.174,32.61,37.409,35.234
38.154,35.672,37.138000000000005,32.593,37.467,35.255
38.061,35.588,37.104,32.575,37.508,35.273
37.971,35.510999999999996,37.073,32.559,37.533,35.286
37.885,35.441,37.045,32.544000000000004,37.546,35.293
37.804,35.379,37.02,32.533,37.547,35.296
37.728,35.324,36.995,32.528,37.536,35.294000000000004
37.659,35.278,36.971,32.529,37.516999999999996,35.287
37.597,35.24,36.945,32.538000000000004,37.488,35.275999999999996
37.54,35.21,36.917,32.559,37.452,35.260999999999996
37.488,35.188,36.885999999999996,32.595,37.41,35.24
37.441,35.172,36.851,32.652,37.361,35.214
37.398,35.159,36.811,32.735,37.308,35.183
37.359,35.145,36.763000000000005,32.851,37.251999999999995,35.144
37.323,35.126999999999995,36.71,33.006,37.194,35.097
37.289,35.106,36.650999999999996,33.202,37.137,35.042
37.255,35.082,36.585,33.442,37.08,34.98
37.221,35.059,36.515,33.724000000000004,37.024,34.912
37.185,35.04,36.441,34.043,36.968,34.84
37.146,35.03,36.361999999999995,34.395,36.913000000000004,34.766
37.106,35.028,36.279,34.771,36.858000000000004,34.69
37.061,35.037,36.193000000000005,35.163000000000004,36.805,34.616
37.012,35.056,36.105,35.564,36.755,34.542
36.955,35.085,36.016999999999996,35.966,36.708,34.47
36.89,35.124,35.929,36.359,36.665,34.399
36.817,35.17,35.842,36.738,36.626,34.329
36.735,35.222,35.757,37.097,36.59,34.260999999999996
36.646,35.277,35.674,37.433,36.559,34.192
36.548,35.33,35.597,37.739000000000004,36.53,34.124
36.442,35.379,35.525,38.014,36.501999999999995,34.056
36.332,35.422,35.46,38.253,36.473,33.99
36.217,35.455999999999996,35.402,38.453,36.442,33.925
36.102,35.481,35.353,38.616,36.41,33.861
35.986999999999995,35.493,35.311,38.741,36.375,33.8
35.875,35.493,35.278,38.830999999999996,36.339,33.74
35.768,35.478,35.253,38.89,36.301,33.683
35.667,35.45,35.236999999999995,38.923,36.263000000000005,33.628
35.574,35.408,35.229,38.933,36.223,33.575
35.49,35.353,35.228,38.924,36.181999999999995,33.524
35.416,35.288000000000004,35.235,38.898,36.14,33.475
35.354,35.215,35.246,38.858000000000004,36.095,33.427
35.303000000000004,35.135,35.26,38.806999999999995,36.047,33.383
35.265,35.052,35.274,38.747,35.995,33.348
35.239000000000004,34.965,35.288000000000004,38.679,35.941,33.327
35.224000000000004,34.876,35.301,38.608000000000004,35.884,33.316
35.219,34.786,35.314,38.534,35.827,33.313
35.225,34.696999999999996,35.327,38.459,35.77,33.313
35.238,34.611999999999995,35.338,38.385,35.716,33.312
35.259,34.532,35.349000000000004,38.312,35.667,33.306
35.284,34.457,35.358000000000004,38.24,35.624,33.295
35.311,34.387,35.365,38.171,35.589,33.278
35.338,34.321999999999996,35.371,38.105,35.559,33.257
35.364000000000004,34.263000000000005,35.375,38.043,35.534,33.232
35.388000000000005,34.209,35.374,37.986,35.515,33.207
35.408,34.161,35.368,37.931999999999995,35.499,33.181999999999995
35.423,34.118,35.355,37.881,35.484,33.157
35.434,34.079,35.336,37.832,35.471,33.135999999999996
35.439,34.043,35.31,37.783,35.458,33.117
35.438,34.01,35.275999999999996,37.734,35.446999999999996,33.101
35.43,33.978,35.235,37.683,35.438,33.088
35.417,33.946999999999996,35.186,37.634,35.431,33.077
35.398,33.916,35.13,37.584,35.427,33.07
35.375,33.885,35.068000000000005,37.537,35.426,33.065
35.349000000000004,33.855,35.001999999999995,37.492,35.429,33.063
35.32,33.825,34.93,37.45,35.434,33.062
35.288000000000004,33.793,34.852,37.41,35.44,33.063
35.253,33.76,34.771,37.373000000000005,35.446,33.064
35.215,33.725,34.687,37.336999999999996,35.453,33.065
35.175,33.689,34.6,37.301,35.461,33.067
35.134,33.653,34.513000000000005,37.264,35.469,33.068000000000005
35.089,33.617,34.424,37.223,35.478,33.07
35.04,33.582,34.332,37.177,35.486999999999995,33.073
34.986,33.548,34.238,37.126999999999995,35.496,33.08
34.926,33.515,34.141,37.071999999999996,35.503,33.094
34.86,33.484,34.043,37.01,35.507,33.117
34.79,33.457,33.945,36.943000000000005,35.506,33.154
34.714,33.433,33.848,36.87,35.5,33.208
34.633,33.413000000000004,33.753,36.792,35.486999999999995,33.284
34.548,33.4,33.66,36.71,35.466,33.388000000000005
34.459,33.395,33.57,36.623000000000005,35.438,33.525
34.368,33.402,33.484,36.533,35.400999999999996,33.7
34.275999999999996,33.424,33.405,36.44,35.355,33.918
34.184,33.467,33.333,36.347,35.299,34.181
34.092,33.532,33.269,36.256,35.235,34.49
34.003,33.623000000000005,33.213,36.168,35.167,34.842
33.918,33.742,33.163000000000004,36.086999999999996,35.099000000000004,35.233000000000004
33.836999999999996,33.889,33.119,36.013000000000005,35.032,35.656
33.762,34.064,33.082,35.945,34.968,36.102
33.692,34.268,33.053000000000004,35.884,34.91,36.561
33.628,34.496,33.03,35.829,34.859,37.023
33.571,34.747,33.015,35.78,34.813,37.475
33.519,35.016,33.007,35.738,34.771,37.909
33.474000000000004,35.298,33.004,35.703,34.732,38.315
33.436,35.588,33.007,35.676,34.696,38.684
33.405,35.88,33.016,35.657,34.661,39.010999999999996
33.379,36.169000000000004,33.029,35.647,34.626,39.291
33.36,36.45,33.047,35.646,34.591,39.522
33.348,36.717,33.067,35.652,34.555,39.704
33.342,36.965,33.089,35.664,34.516999999999996,39.835
33.34,37.191,33.11,35.68,34.476,39.919000000000004
33.342,37.391999999999996,33.13,35.696999999999996,34.433,39.958
33.344,37.566,33.147,35.711,34.389,39.957
33.344,37.711,33.162,35.722,34.342,39.921
33.341,37.828,33.172,35.731,34.294000000000004,39.855
33.332,37.916,33.177,35.74,34.245,39.764
33.318000000000005,37.979,33.178000000000004,35.748000000000005,34.196999999999996,39.654
33.299,38.016999999999996,33.176,35.757,34.152,39.529
33.275999999999996,38.034,33.169000000000004,35.766,34.11,39.396
33.246,38.031,33.16,35.773,34.074,39.259
33.213,38.012,33.145,35.778,34.044000000000004,39.12
33.175,37.98,33.126,35.777,34.02,38.984
33.134,37.937,33.103,35.769,34.001,38.85
33.091,37.885999999999996,33.075,35.754,33.986,38.721
33.048,37.83,33.045,35.73,33.974000000000004,38.595
33.006,37.77,33.012,35.699,33.964,38.471
32.967,37.709,32.977,35.659,33.952,38.35
32.931999999999995,37.649,32.939,35.611999999999995,33.938,38.228
32.902,37.591,32.898,35.558,33.92,38.104
32.876,37.534,32.854,35.496,33.898,37.979
32.856,37.478,32.811,35.428000000000004,33.873000000000005,37.85
32.841,37.425,32.769,35.353,33.846,37.719
32.834,37.375,32.73,35.273,33.819,37.588
32.836999999999996,37.327,32.694,35.189,33.793,37.455999999999996
32.851,37.281,32.663000000000004,35.101,33.768,37.327
32.879,37.236,32.638000000000005,35.010999999999996,33.745,37.199
32.925,37.191,32.619,34.92,33.726,37.076
32.991,37.146,32.608000000000004,34.829,33.708,36.955999999999996
33.082,37.102,32.608000000000004,34.738,33.692,36.84
33.201,37.059,32.62,34.649,33.677,36.727
33.353,37.019,32.648,34.561,33.662,36.617
33.539,36.982,32.694,34.476,33.647,36.51
33.763000000000005,36.95,32.764,34.394,33.631,36.407
34.023,36.922,32.861,34.318000000000005,33.614000000000004,36.308
34.317,36.896,32.991,34.247,33.597,36.213
34.64,36.872,33.158,34.184,33.578,36.121
34.986,36.85,33.364000000000004,34.126,33.559,36.033
35.349000000000004,36.827,33.61,34.073,33.539,35.946
35.72,36.804,33.895,34.024,33.52,35.859
36.093,36.779,34.216,33.979,33.501,35.77
36.458,36.749,34.568000000000005,33.938,33.485,35.681
36.808,36.715,34.942,33.902,33.471,35.592
37.138000000000005,36.676,35.330999999999996,33.873000000000005,33.461,35.503
37.441,36.63,35.724000000000004,33.851,33.455999999999996,35.416
37.714,36.577,36.115,33.835,33.461,35.333
37.953,36.516999999999996,36.495,33.825,33.479,35.254
38.157,36.45,36.856,33.816,33.515,35.181
38.325,36.376999999999995,37.193000000000005,33.806999999999995,33.574,35.113
38.455999999999996,36.299,37.5,33.796,33.66,35.052
38.554,36.216,37.774,33.781,33.775,34.999
38.619,36.132,38.012,33.763000000000005,33.919000000000004,34.955
38.653,36.046,38.213,33.742,34.093,34.92
38.661,35.961,38.376,33.72,34.293,34.894
38.646,35.881,38.504,33.7,34.516999999999996,34.878
38.611999999999995,35.806,38.599000000000004,33.681,34.76,34.871
38.561,35.736999999999995,38.665,33.666,35.018,34.874
38.499,35.676,38.705,33.653,35.283,34.885
38.427,35.623000000000005,38.723,33.64,35.55,34.904
38.348,35.576,38.722,33.625,35.814,34.93
38.265,35.536,38.705,33.605,36.071,34.96
38.18,35.501999999999995,38.674,33.578,36.316,34.993
38.094,35.475,38.634,33.544000000000004,36.545,35.028
38.009,35.453,38.585,33.503,36.755,35.065
37.927,35.437,38.53,33.455999999999996,36.943000000000005,35.103
37.848,35.426,38.47,33.404,37.106,35.141999999999996
37.773,35.418,38.407,33.349000000000004,37.244,35.18
37.701,35.415,38.341,33.293,37.358000000000004,35.217
37.634,35.416,38.275,33.236999999999995,37.449,35.251999999999995
37.571,35.42,38.208,33.183,37.52,35.283
37.512,35.426,38.143,33.131,37.573,35.31
37.457,35.437,38.08,33.083,37.608000000000004,35.332
37.405,35.449,38.021,33.039,37.628,35.347
37.356,35.464,37.966,33.0,37.635,35.357
37.308,35.48,37.914,32.969,37.629,35.36
37.26,35.495,37.863,32.946999999999996,37.614000000000004,35.357
37.213,35.51,37.813,32.938,37.59,35.349000000000004
37.167,35.522,37.765,32.945,37.558,35.335
37.12,35.532,37.719,32.974000000000004,37.521,35.315
37.071999999999996,35.539,37.673,33.029,37.479,35.29
37.023,35.542,37.626,33.115,37.431999999999995,35.258
36.971,35.542,37.578,33.236999999999995,37.382,35.222
36.915,35.537,37.528,33.398,37.329,35.18
36.856,35.527,37.476,33.601,37.273,35.132
36.793,35.510999999999996,37.425,33.844,37.215,35.078
36.725,35.489000000000004,37.376,34.126999999999995,37.156,35.019
36.653,35.46,37.328,34.446,37.095,34.955
36.574,35.426,37.282,34.795,37.033,34.887
36.49,35.387,37.238,35.165,36.971,34.816
36.399,35.344,37.195,35.549,36.911,34.745
36.303000000000004,35.297,37.153,35.938,36.853,34.672
36.203,35.247,37.113,36.325,36.798,34.599000000000004
36.099000000000004,35.194,37.074,36.701,36.747,34.525
35.994,35.141,37.035,37.059,36.7,34.451
35.888000000000005,35.088,36.994,37.391999999999996,36.657,34.378
35.784,35.035,36.951,37.696999999999996,36.618,34.305
35.681999999999995,34.982,36.903,37.968,36.583,34.233000000000004
35.586,34.93,36.851,38.202,36.551,34.162
35.495,34.878,36.793,38.399,36.522,34.092
35.413000000000004,34.827,36.731,38.56,36.493,34.024
35.341,34.779,36.664,38.686,36.465,33.957
35.281,34.732,36.592,38.781,36.438,33.893
35.231,34.687,36.516999999999996,38.846,36.409,33.829
35.193000000000005,34.643,36.44,38.882,36.38,33.766
35.167,34.602,36.361,38.893,36.349000000000004,33.705
35.154,34.563,36.283,38.882,36.315,33.645
35.152,34.525,36.208,38.855,36.279,33.585
35.16,34.488,36.138000000000005,38.815,36.236999999999995,33.528
35.178000000000004,34.451,36.073,38.765,36.191,33.473
35.203,34.414,36.014,38.71,36.139,33.421
35.233000000000004,34.378,35.961999999999996,38.652,36.082,33.374
35.266999999999996,34.343,35.917,38.594,36.021,33.330999999999996
35.302,34.308,35.879,38.536,35.958,33.292
35.339,34.274,35.85,38.48,35.893,33.257
35.374,34.241,35.829,38.426,35.828,33.226
35.407,34.209,35.817,38.373000000000005,35.766999999999996,33.198
35.437,34.179,35.811,38.32,35.709,33.176
35.461999999999996,34.149,35.813,38.269,35.657,33.157
35.481,34.119,35.821,38.22,35.613,33.144
35.494,34.088,35.835,38.172,35.575,33.135999999999996
35.5,34.056999999999995,35.855,38.126,35.543,33.132
35.497,34.025,35.876999999999995,38.080999999999996,35.516999999999996,33.132
35.486,33.994,35.899,38.037,35.497,33.137
35.465,33.961999999999996,35.92,37.995,35.483000000000004,33.143
35.437,33.931,35.938,37.955,35.472,33.150999999999996
35.4,33.9,35.954,37.92,35.465,33.157
35.356,33.87,35.966,37.888000000000005,35.46,33.162
35.306,33.843,35.974000000000004,37.861,35.458,33.164
35.25,33.82,35.976,37.839,35.455999999999996,33.163000000000004
35.19,33.803000000000004,35.973,37.819,35.455,33.159
35.128,33.795,35.964,37.801,35.455,33.153
35.064,33.799,35.949,37.782,35.455999999999996,33.146
34.998000000000005,33.818000000000005,35.929,37.762,35.46,33.139
34.933,33.856,35.904,37.738,35.466,33.133
34.867,33.917,35.874,37.711999999999996,35.473,33.126
34.803000000000004,34.001999999999995,35.84,37.683,35.484,33.12
34.74,34.113,35.802,37.65,35.497,33.115
34.678000000000004,34.25,35.759,37.614000000000004,35.513000000000005,33.11
34.616,34.412,35.71,37.573,35.532,33.106
34.555,34.599000000000004,35.656,37.529,35.555,33.103
34.494,34.808,35.597,37.479,35.578,33.105
34.434,35.036,35.532,37.423,35.6,33.111999999999995
34.374,35.28,35.461,37.361,35.617,33.126999999999995
34.316,35.535,35.384,37.292,35.629,33.155
34.259,35.798,35.299,37.218,35.633,33.198
34.203,36.062,35.207,37.14,35.63,33.260999999999996
34.148,36.323,35.11,37.059,35.616,33.349000000000004
34.093,36.576,35.01,36.976,35.594,33.469
34.036,36.817,34.907,36.89,35.563,33.624
33.98,37.044000000000004,34.806,36.803000000000004,35.524,33.82
33.924,37.251999999999995,34.705,36.716,35.478,34.06
33.869,37.441,34.607,36.631,35.426,34.346
33.816,37.607,34.510999999999996,36.548,35.369,34.676
33.765,37.751,34.416,36.471,35.306999999999995,35.047
33.716,37.871,34.324,36.4,35.242,35.453
33.668,37.968,34.235,36.336999999999996,35.173,35.883
33.622,38.043,34.148,36.282,35.103,36.328
33.578,38.098,34.065,36.236,35.034,36.775999999999996
33.538000000000004,38.135,33.986,36.198,34.966,37.217
33.5,38.154,33.912,36.167,34.900999999999996,37.639
33.464,38.158,33.841,36.14,34.839,38.032
33.43,38.149,33.775999999999996,36.116,34.782,38.391
33.4,38.126999999999995,33.717,36.092,34.728,38.71
33.371,38.096,33.665,36.066,34.677,38.984
33.345,38.056,33.62,36.037,34.628,39.211999999999996
33.319,38.010999999999996,33.582,36.008,34.58,39.393
33.294000000000004,37.96,33.552,35.98,34.532,39.528
33.268,37.906,33.529,35.955,34.48,39.617
33.242,37.851,33.510999999999996,35.935,34.426,39.666
33.216,37.795,33.497,35.921,34.37,39.676
33.19,37.739000000000004,33.486999999999995,35.913000000000004,34.311,39.655
33.163000000000004,37.683,33.479,35.91,34.249,39.606
33.139,37.628,33.474000000000004,35.911,34.186,39.535
33.12,37.575,33.469,35.913000000000004,34.123000000000005,39.445
33.108000000000004,37.522,33.466,35.912,34.06,39.341
33.107,37.471,33.464,35.907,34.0,39.225
33.121,37.422,33.46,35.894,33.945,39.102
33.155,37.374,33.455999999999996,35.875,33.895,38.974000000000004
33.213,37.329,33.451,35.851,33.851,38.843
33.298,37.287,33.446,35.821999999999996,33.812,38.711999999999996
33.416,37.247,33.441,35.789,33.778,38.58
33.568000000000005,37.211999999999996,33.436,35.754,33.75,38.446999999999996
33.756,37.18,33.427,35.715,33.726,38.315
33.98,37.150999999999996,33.416,35.672,33.705999999999996,38.183
34.238,37.126,33.400999999999996,35.623000000000005,33.689,38.051
34.525999999999996,37.102,33.383,35.569,33.676,37.919000000000004
34.839,37.078,33.363,35.508,33.665,37.79
35.17,37.051,33.34,35.441,33.655,37.663000000000004
35.512,37.019,33.315,35.368,33.647,37.539
35.859,36.982,33.287,35.289,33.638000000000005,37.418
36.205,36.939,33.256,35.205,33.631,37.303000000000004
36.544000000000004,36.888000000000005,33.222,35.118,33.623000000000005,37.191
36.867,36.830999999999996,33.188,35.027,33.613,37.082
37.168,36.769,33.156,34.935,33.601,36.976
37.443000000000005,36.702,33.128,34.841,33.588,36.872
37.688,36.631,33.104,34.746,33.573,36.77
37.899,36.556999999999995,33.086,34.650999999999996,33.556,36.669000000000004
38.074,36.479,33.071999999999996,34.558,33.539,36.57
38.211,36.399,33.061,34.469,33.523,36.473
38.31,36.318000000000005,33.053000000000004,34.385,33.509,36.376
38.374,36.236,33.045,34.306999999999995,33.496,36.279
38.405,36.156,33.038000000000004,34.234,33.485,36.181
38.406,36.078,33.031,34.168,33.475,36.080999999999996
38.383,36.003,33.024,34.107,33.465,35.979
38.339,35.933,33.019,34.049,33.452,35.876
38.278,35.869,33.018,33.994,33.437,35.772
38.205,35.813,33.022,33.942,33.419000000000004,35.668
38.123000000000005,35.765,33.035,33.893,33.4,35.564
38.037,35.724000000000004,33.06,33.844,33.379,35.463
37.949,35.689,33.103,33.797,33.359,35.365
37.86,35.661,33.17,33.75,33.34,35.272
37.771,35.638000000000005,33.266,33.703,33.323,35.183
37.685,35.621,33.394,33.656,33.31,35.102
37.603,35.608000000000004,33.559,33.611,33.303000000000004,35.027
37.525999999999996,35.6,33.759,33.569,33.308,34.96
37.453,35.595,33.996,33.531,33.326,34.9
37.385999999999996,35.593,34.268,33.499,33.363,34.849000000000004
37.323,35.594,34.571,33.473,33.421,34.808
37.266999999999996,35.597,34.898,33.453,33.501999999999995,34.775
37.216,35.602,35.243,33.439,33.609,34.751
37.172,35.609,35.6,33.429,33.744,34.736
37.131,35.615,35.96,33.42,33.907,34.73
37.091,35.622,36.317,33.411,34.099000000000004,34.734
37.051,35.629,36.663000000000004,33.397,34.318000000000005,34.747
37.009,35.635999999999996,36.993,33.376999999999995,34.563,34.768
36.963,35.641999999999996,37.3,33.352,34.828,34.797
36.914,35.647,37.579,33.321,35.107,34.832
36.86,35.65,37.828,33.287,35.396,34.874
36.801,35.650999999999996,38.045,33.251,35.687,34.921
36.735,35.65,38.227,33.215,35.975,34.972
36.663000000000004,35.644,38.376999999999995,33.179,36.254,35.025
36.585,35.633,38.495,33.143,36.516,35.078
36.501999999999995,35.617,38.583,33.109,36.759,35.126999999999995
36.413000000000004,35.595,38.643,33.076,36.979,35.171
36.321999999999996,35.568000000000005,38.677,33.045,37.174,35.21
36.229,35.535,38.69,33.021,37.344,35.243
36.134,35.497,38.685,33.004,37.489000000000004,35.269
36.038000000000004,35.453,38.665,32.999,37.609,35.287
35.94,35.406,38.635,33.007,37.707,35.298
35.844,35.354,38.597,33.034,37.782,35.304
35.749,35.297,38.552,33.082,37.835,35.305
35.658,35.238,38.503,33.154,37.869,35.301
35.571,35.177,38.452,33.254,37.885999999999996,35.291
35.489000000000004,35.114000000000004,38.4,33.383,37.889,35.275999999999996
35.412,35.051,38.347,33.543,37.88,35.254
35.341,34.989000000000004,38.295,33.736999999999995,37.861999999999995,35.228
35.275999999999996,34.927,38.243,33.964,37.835,35.196
35.218,34.867,38.19,34.224000000000004,37.8,35.158
35.167,34.808,38.137,34.514,37.758,35.114000000000004
35.123000000000005,34.751999999999995,38.084,34.832,37.711,35.063
35.086999999999996,34.696999999999996,38.032,35.172,37.658,35.006
35.058,34.644,37.981,35.527,37.601,34.945
35.037,34.594,37.93,35.887,37.539,34.881
35.022,34.545,37.88,36.244,37.474000000000004,34.815
35.014,34.499,37.830999999999996,36.591,37.406,34.748000000000005
35.013000000000005,34.454,37.784,36.92,37.338,34.681
35.016999999999996,34.412,37.74,37.225,37.272,34.613
35.027,34.372,37.699,37.5,37.21,34.544000000000004
35.042,34.334,37.661,37.744,37.150999999999996,34.474000000000004
35.059,34.296,37.625,37.955999999999996,37.096,34.404
35.079,34.260999999999996,37.591,38.137,37.045,34.334
35.101,34.229,37.56,38.286,36.998000000000005,34.265
35.125,34.2,37.53,38.404,36.959,34.196999999999996
35.15,34.173,37.5,38.494,36.929,34.132
35.175,34.148,37.469,38.556,36.905,34.07
35.199,34.123000000000005,37.437,38.592,36.887,34.010999999999996
35.219,34.099000000000004,37.403,38.606,36.87,33.957
35.236,34.074,37.367,38.599000000000004,36.851,33.905
35.249,34.05,37.329,38.575,36.827,33.858000000000004
35.258,34.025,37.289,38.538000000000004,36.798,33.813
35.262,34.0,37.245,38.492,36.762,33.77
35.26,33.974000000000004,37.196999999999996,38.44,36.719,33.729
35.251,33.949,37.146,38.387,36.67,33.69
35.235,33.924,37.09,38.333,36.614000000000004,33.652
35.21,33.9,37.028,38.282,36.553000000000004,33.614000000000004
35.176,33.878,36.961999999999996,38.234,36.486,33.577
35.134,33.86,36.89,38.19,36.413000000000004,33.541
35.085,33.847,36.812,38.15,36.336999999999996,33.508
35.028,33.843,36.728,38.111999999999995,36.26,33.478
34.966,33.849000000000004,36.64,38.077,36.181,33.451
34.899,33.87,36.547,38.043,36.103,33.429
34.827,33.906,36.452,38.009,36.025999999999996,33.412
34.751999999999995,33.961,36.358000000000004,37.974000000000004,35.953,33.399
34.676,34.038000000000004,36.266,37.939,35.885,33.39
34.6,34.139,36.178000000000004,37.902,35.821,33.383
34.525999999999996,34.265,36.095,37.864000000000004,35.765,33.376999999999995
34.455,34.416,36.02,37.828,35.716,33.372
34.388000000000005,34.589,35.954,37.795,35.675,33.366
34.325,34.783,35.899,37.763000000000005,35.644,33.36
34.265,34.994,35.857,37.732,35.621,33.355
34.209,35.22,35.826,37.702,35.606,33.349000000000004
34.155,35.458,35.806999999999995,37.672,35.599000000000004,33.344
34.105,35.704,35.797,37.643,35.596,33.339
34.059,35.952,35.796,37.614000000000004,35.596,33.332
34.015,36.199,35.802,37.584,35.597,33.325
33.973,36.439,35.814,37.555,35.596,33.317
33.931999999999995,36.667,35.830999999999996,37.523,35.593,33.306999999999995
33.891,36.88,35.851,37.49,35.586,33.295
33.851,37.073,35.874,37.452,35.577,33.282
33.811,37.243,35.898,37.41,35.568000000000005,33.268
33.771,37.389,35.924,37.361,35.559,33.253
33.729,37.510999999999996,35.949,37.305,35.552,33.236999999999995
33.686,37.607,35.973,37.24,35.548,33.221
33.641,37.679,35.995,37.166,35.548,33.207
33.594,37.726,36.014,37.085,35.553000000000004,33.193000000000005
33.546,37.751,36.029,36.998000000000005,35.561,33.179
33.498000000000005,37.757,36.041,36.907,35.573,33.165
33.449,37.748000000000005,36.047,36.813,35.585,33.149
33.4,37.726,36.047,36.718,35.597,33.132
33.353,37.693000000000005,36.039,36.621,35.608000000000004,33.114000000000004
33.306999999999995,37.654,36.024,36.522,35.617,33.096
33.262,37.609,36.0,36.422,35.623000000000005,33.079
33.22,37.559,35.97,36.321,35.626999999999995,33.065
33.179,37.507,35.933,36.22,35.629,33.056999999999995
33.14,37.452,35.889,36.123000000000005,35.626999999999995,33.059
33.105,37.396,35.84,36.03,35.621,33.074
33.071999999999996,37.34,35.785,35.945,35.609,33.107
33.042,37.286,35.726,35.871,35.59,33.164
33.014,37.232,35.663000000000004,35.81,35.564,33.25
32.989000000000004,37.18,35.595,35.763000000000005,35.532,33.37
32.967,37.128,35.522,35.73,35.491,33.529
32.949,37.076,35.444,35.71,35.444,33.732
32.935,37.025,35.363,35.701,35.391,33.981
32.927,36.975,35.278,35.698,35.332,34.275999999999996
32.926,36.926,35.189,35.699,35.269,34.615
32.937,36.879,35.097,35.702,35.205,34.994
32.96,36.833,35.001999999999995,35.707,35.14,35.407
33.001,36.788000000000004,34.904,35.711,35.075,35.844
33.065,36.744,34.806,35.715,35.010999999999996,36.296
33.156,36.703,34.707,35.72,34.946999999999996,36.751
33.278,36.665,34.609,35.726,34.883,37.2
33.435,36.63,34.512,35.734,34.82,37.632
33.628,36.597,34.418,35.743,34.757,38.036
33.857,36.565,34.326,35.75,34.696999999999996,38.405
34.12,36.534,34.236999999999995,35.756,34.637,38.732
34.413000000000004,36.501,34.152,35.758,34.579,39.010999999999996
34.732,36.466,34.073,35.755,34.521,39.241
35.068000000000005,36.426,34.0,35.746,34.465,39.419000000000004
35.417,36.379,33.931999999999995,35.729,34.409,39.547
35.77,36.326,33.871,35.705999999999996,34.356,39.629
36.12,36.266999999999996,33.817,35.678000000000004,34.303000000000004,39.667
36.46,36.202,33.77,35.646,34.251,39.668
36.785,36.132,33.731,35.609,34.202,39.637
37.088,36.056999999999995,33.7,35.567,34.153,39.58
37.365,35.979,33.676,35.519,34.106,39.501999999999995
37.61,35.9,33.658,35.464,34.06,39.407
37.821,35.821999999999996,33.648,35.402,34.016999999999996,39.3
37.998000000000005,35.746,33.644,35.332,33.975,39.183
38.139,35.673,33.646,35.258,33.935,39.059
38.245,35.606,33.654,35.18,33.897,38.93
38.318000000000005,35.545,33.665,35.099000000000004,33.863,38.798
38.36,35.49,33.678000000000004,35.016999999999996,33.83,38.664
38.373000000000005,35.443000000000005,33.69,34.933,33.797,38.529
38.361999999999995,35.404,33.701,34.848,33.765,38.394
38.33,35.373000000000005,33.709,34.762,33.733000000000004,38.26
38.282,35.351,33.715,34.674,33.7,38.126
38.221,35.334,33.717,34.586,33.667,37.994
38.150999999999996,35.321999999999996,33.714,34.497,33.635,37.864000000000004
38.074,35.314,33.705999999999996,34.409,33.603,37.735
37.994,35.309,33.693000000000005,34.324,33.573,37.608000000000004
37.912,35.306999999999995,33.677,34.242,33.544000000000004,37.482
37.829,35.308,33.657,34.165,33.518,37.357
37.746,35.312,33.633,34.094,33.495,37.235
37.666,35.317,33.606,34.028,33.477,37.116
37.589,35.323,33.575,33.966,33.464,37.001
37.515,35.330999999999996,33.539,33.907,33.455,36.888000000000005
37.443000000000005,35.34,33.499,33.851,33.449,36.778
37.374,35.35,33.454,33.796,33.445,36.672
37.308,35.36,33.407,33.745,33.441,36.568000000000005
37.246,35.369,33.357,33.696999999999996,33.438,36.466
37.189,35.376999999999995,33.306999999999995,33.654,33.436,36.364000000000004
37.135999999999996,35.385,33.257,33.617,33.433,36.262
37.086,35.39,33.211,33.584,33.429,36.159
37.038000000000004,35.393,33.169000000000004,33.556,33.425,36.055
36.993,35.393,33.134,33.532,33.418,35.949
36.95,35.389,33.107,33.509,33.409,35.843
36.907,35.383,33.092,33.488,33.397,35.738
36.865,35.374,33.088,33.468,33.383,35.634
36.819,35.361,33.096,33.446999999999996,33.368,35.534
36.769,35.342,33.119,33.427,33.352,35.438
36.714,35.317,33.159,33.408,33.335,35.345
36.653,35.286,33.222,33.391,33.32,35.256
36.585,35.248000000000005,33.309,33.375,33.308,35.17
36.51,35.204,33.426,33.36,33.304,35.088
36.428000000000004,35.155,33.573,33.346,33.309,35.010999999999996
36.34,35.101,33.756,33.334,33.328,34.942
36.245,35.044000000000004,33.973,33.321999999999996,33.367,34.881
36.145,34.982,34.226,33.311,33.431999999999995,34.829
36.038000000000004,34.918,34.509,33.302,33.525999999999996,34.789
35.927,34.851,34.819,33.294000000000004,33.653,34.760999999999996
35.814,34.783,35.150999999999996,33.287,33.814,34.745
35.7,34.717,35.499,33.281,34.009,34.742
35.589,34.650999999999996,35.856,33.275,34.236,34.751
35.48,34.586999999999996,36.214,33.269,34.49,34.771
35.378,34.524,36.567,33.26,34.766,34.801
35.283,34.461,36.908,33.25,35.059,34.84
35.203,34.399,37.229,33.238,35.361,34.885999999999996
35.143,34.34,37.525,33.224000000000004,35.668,34.937
35.103,34.284,37.794000000000004,33.207,35.972,34.992
35.084,34.23,38.03,33.189,36.268,35.049
35.08,34.179,38.232,33.169000000000004,36.551,35.105
35.088,34.129,38.400999999999996,33.147,36.817,35.16
35.106,34.080999999999996,38.537,33.122,37.062,35.211999999999996
35.129,34.035,38.641,33.094,37.284,35.26
35.154,33.992,38.714,33.064,37.477,35.302
35.179,33.951,38.760999999999996,33.032,37.641999999999996,35.336999999999996
35.201,33.913000000000004,38.785,33.004,37.778,35.364000000000004
35.218,33.876,38.789,32.983000000000004,37.884,35.385
35.232,33.841,38.775999999999996,32.977,37.964,35.4
35.243,33.806999999999995,38.75,32.99,38.018,35.409
35.251,33.775999999999996,38.715,33.029,38.051,35.414
35.257,33.755,38.672,33.098,38.066,35.413000000000004
35.262,33.744,38.624,33.204,38.064,35.406
35.265,33.745,38.573,33.347,38.047,35.391999999999996
35.265,33.756,38.518,33.531,38.016999999999996,35.371
35.260999999999996,33.773,38.461,33.755,37.975,35.344
35.251999999999995,33.792,38.400999999999996,34.018,37.925,35.31
35.239000000000004,33.813,38.341,34.316,37.868,35.271
35.222,33.834,38.28,34.646,37.808,35.227
35.202,33.855,38.22,35.001,37.745,35.18
35.179,33.876999999999995,38.16,35.375,37.683,35.131
35.154,33.902,38.102,35.758,37.62,35.079
35.126999999999995,33.934,38.045,36.139,37.558,35.024
35.1,33.974000000000004,37.992,36.506,37.497,34.965
35.073,34.027,37.942,36.843,37.437,34.902
35.045,34.094,37.894,37.143,37.376,34.836
35.016999999999996,34.179,37.847,37.4,37.316,34.766
34.986999999999995,34.286,37.801,37.614000000000004,37.255,34.694
34.955,34.415,37.756,37.787,37.196,34.622
34.919000000000004,34.565,37.711,37.925,37.137,34.55
34.88,34.736,37.668,38.03,37.080999999999996,34.48
34.836999999999996,34.926,37.624,38.108000000000004,37.028,34.411
34.79,35.132,37.58,38.163000000000004,36.98,34.345
34.739000000000004,35.351,37.535,38.2,36.937,34.28
34.686,35.578,37.49,38.223,36.898,34.217
34.628,35.806999999999995,37.444,38.235,36.861999999999995,34.155
34.566,36.033,37.398,38.239000000000004,36.827,34.093
34.5,36.251999999999995,37.352,38.239000000000004,36.794000000000004,34.033
34.43,36.459,37.306999999999995,38.235,36.760999999999996,33.976
34.358000000000004,36.653,37.260999999999996,38.231,36.728,33.922
34.285,36.829,37.215,38.226,36.696,33.873000000000005
34.211999999999996,36.986999999999995,37.167,38.221,36.663000000000004,33.829
34.14,37.125,37.116,38.216,36.63,33.788000000000004
34.07,37.245,37.062,38.209,36.594,33.751999999999995
34.003,37.344,37.005,38.2,36.555,33.719
33.94,37.424,36.943000000000005,38.187,36.514,33.689
33.882,37.485,36.876,38.169000000000004,36.469,33.662
33.828,37.528,36.803000000000004,38.146,36.42,33.637
33.778,37.554,36.725,38.118,36.365,33.614000000000004
33.732,37.565,36.643,38.086,36.306,33.593
33.69,37.561,36.556999999999995,38.052,36.243,33.573
33.650999999999996,37.544000000000004,36.471,38.016,36.178000000000004,33.555
33.614000000000004,37.514,36.385999999999996,37.979,36.111,33.539
33.58,37.475,36.304,37.943000000000005,36.046,33.525
33.548,37.428000000000004,36.224000000000004,37.909,35.983000000000004,33.512
33.52,37.375,36.149,37.875,35.925,33.501
33.495,37.319,36.08,37.844,35.87,33.491
33.472,37.262,36.019,37.814,35.818000000000005,33.483000000000004
33.451,37.205,35.966,37.785,35.769,33.476
33.431,37.150999999999996,35.921,37.757,35.724000000000004,33.469
33.411,37.1,35.885,37.73,35.686,33.463
33.391,37.051,35.855,37.704,35.653,33.455999999999996
33.372,37.006,35.830999999999996,37.676,35.628,33.449
33.353,36.966,35.812,37.647,35.61,33.441
33.333,36.928000000000004,35.799,37.615,35.599000000000004,33.431999999999995
33.313,36.894,35.79,37.579,35.596,33.423
33.292,36.861999999999995,35.784,37.54,35.6,33.415
33.269,36.83,35.78,37.499,35.609,33.407
33.245,36.799,35.778,37.454,35.621,33.4
33.219,36.766999999999996,35.778,37.406,35.634,33.394
33.19,36.736,35.781,37.353,35.645,33.388000000000005
33.162,36.704,35.785,37.294000000000004,35.654,33.38
33.132,36.671,35.791,37.229,35.66,33.371
33.102,36.635,35.799,37.158,35.663000000000004,33.36
33.071,36.596,35.806999999999995,37.079,35.663000000000004,33.346
33.04,36.553000000000004,35.815,36.996,35.661,33.330999999999996
33.013000000000005,36.506,35.821,36.909,35.657,33.314
32.993,36.453,35.821999999999996,36.82,35.652,33.298
32.984,36.396,35.819,36.73,35.647,33.281
32.991,36.334,35.81,36.641,35.641999999999996,33.265
33.019,36.271,35.792,36.553000000000004,35.639,33.249
33.073,36.205,35.766999999999996,36.466,35.637,33.233000000000004
33.159,36.138000000000005,35.734,36.38,35.633,33.215
33.279,36.069,35.692,36.296,35.626,33.195
33.438,36.0,35.643,36.214,35.616,33.173
33.635999999999996,35.931,35.59,36.137,35.603,33.150999999999996
33.874,35.861999999999995,35.534,36.066,35.585,33.13
34.148,35.795,35.474000000000004,36.003,35.563,33.11
34.455,35.729,35.41,35.949,35.537,33.096
34.787,35.665,35.344,35.905,35.505,33.089
35.138000000000005,35.603,35.274,35.871,35.467,33.091
35.5,35.543,35.202,35.846,35.424,33.108000000000004
35.865,35.486,35.129,35.829,35.374,33.141
36.226,35.433,35.054,35.82,35.317,33.198
36.575,35.385999999999996,34.979,35.818000000000005,35.253,33.282
36.903,35.344,34.900999999999996,35.821999999999996,35.181999999999995,33.400999999999996
37.205,35.308,34.823,35.830999999999996,35.104,33.558
37.477,35.275999999999996,34.744,35.844,35.022,33.759
37.716,35.248000000000005,34.668,35.858000000000004,34.938,34.007
37.92,35.224000000000004,34.594,35.873000000000005,34.855,34.302
38.088,35.205999999999996,34.523,35.885,34.775999999999996,34.641999999999996
38.22,35.193000000000005,34.455999999999996,35.894,34.702,35.022
38.317,35.185,34.391999999999996,35.899,34.633,35.435
38.382,35.181999999999995,34.330999999999996,35.899,34.57,35.874
38.418,35.181999999999995,34.273,35.893,34.512,36.327
38.43,35.185,34.217,35.883,34.459,36.784
38.42,35.19,34.161,35.867,34.41,37.235
38.391,35.198,34.105,35.848,34.363,37.669000000000004
38.348,35.207,34.05,35.824,34.317,38.075
38.292,35.216,33.995,35.794000000000004,34.271,38.445
38.229,35.224000000000004,33.942,35.759,34.226,38.773
38.161,35.229,33.89,35.717,34.179,39.054
38.09,35.232,33.839,35.668,34.132,39.286
38.016999999999996,35.232,33.79,35.611999999999995,34.085,39.47
37.942,35.228,33.742,35.551,34.038000000000004,39.606
37.867,35.22,33.696999999999996,35.486999999999995,33.99,39.698
37.791,35.209,33.655,35.42,33.944,39.749
37.715,35.196,33.616,35.352,33.9,39.762
37.639,35.179,33.582,35.282,33.859,39.742
37.564,35.16,33.55,35.211999999999996,33.821,39.693000000000005
37.489000000000004,35.138000000000005,33.521,35.144,33.786,39.619
37.414,35.111999999999995,33.492,35.077,33.755,39.525
37.34,35.083,33.466,35.010999999999996,33.727,39.415
37.266999999999996,35.053000000000004,33.44,34.946,33.703,39.295
37.194,35.021,33.415,34.88,33.684,39.167
37.12,34.986999999999995,33.388000000000005,34.812,33.67,39.032
37.047,34.951,33.36,34.743,33.661,38.893
36.973,34.914,33.33,34.671,33.654,38.75
36.898,34.875,33.299,34.596,33.648,38.603
36.821999999999996,34.836,33.265,34.519,33.643,38.452
36.744,34.794000000000004,33.23,34.439,33.635999999999996,38.299
36.667,34.751999999999995,33.194,34.356,33.626,38.143
36.589,34.708,33.159,34.273,33.611,37.985
36.513000000000005,34.663000000000004,33.126999999999995,34.191,33.592,37.825
36.437,34.616,33.1,34.111,33.568000000000005,37.666
36.361999999999995,34.566,33.082,34.036,33.54,37.507
36.286,34.513000000000005,33.074,33.967,33.509,37.351
36.211999999999996,34.457,33.078,33.906,33.476,37.199
36.137,34.398,33.097,33.851,33.442,37.052
36.062,34.338,33.133,33.801,33.41,36.912
35.985,34.277,33.191,33.756,33.381,36.779
35.907,34.215,33.274,33.717,33.354,36.654
35.827,34.152,33.384,33.681999999999995,33.330999999999996,36.535
35.747,34.09,33.525,33.652,33.312,36.421
35.666,34.027,33.696999999999996,33.626999999999995,33.295,36.308
35.586,33.965,33.902,33.608000000000004,33.28,36.196
35.507,33.904,34.14,33.596,33.266,36.082
35.429,33.845,34.407,33.589,33.251,35.968
35.354,33.789,34.7,33.586999999999996,33.234,35.853
35.283,33.736999999999995,35.013000000000005,33.586999999999996,33.216,35.739000000000004
35.217,33.689,35.34,33.59,33.2,35.626999999999995
35.158,33.647,35.674,33.592,33.19,35.516999999999996
35.107,33.61,36.009,33.594,33.189,35.412
35.064,33.579,36.339,33.595,33.203,35.31
35.03,33.552,36.657,33.595,33.236,35.213
35.004,33.529,36.957,33.594,33.294000000000004,35.12
34.986,33.512,37.236,33.593,33.382,35.033
34.975,33.499,37.49,33.59,33.501999999999995,34.952
34.971,33.491,37.718,33.586,33.654,34.878
34.976,33.486999999999995,37.918,33.578,33.839,34.813
34.989000000000004,33.488,38.089,33.565,34.054,34.757
35.009,33.497,38.232,33.546,34.297,34.713
35.036,33.515,38.349000000000004,33.52,34.566,34.679
35.067,33.544000000000004,38.44,33.488,34.854,34.657
35.101,33.586999999999996,38.507,33.451,35.156,34.646
35.138000000000005,33.645,38.552,33.413000000000004,35.465,34.646
35.175,33.72,38.576,33.376999999999995,35.774,34.656
35.21,33.813,38.583,33.344,36.077,34.676
35.243,33.927,38.573,33.314,36.366,34.703
35.27,34.062,38.548,33.289,36.638000000000005,34.738
35.291,34.219,38.510999999999996,33.269,36.887,34.782
35.305,34.399,38.463,33.251999999999995,37.111999999999995,34.833
35.311,34.599000000000004,38.407,33.238,37.31,34.889
35.309,34.817,38.345,33.226,37.479,34.948
35.299,35.048,38.278,33.215,37.621,35.008
35.282,35.288000000000004,38.208,33.201,37.736,35.064
35.257,35.531,38.138000000000005,33.183,37.825,35.117
35.223,35.773,38.067,33.159,37.891999999999996,35.163000000000004
35.181,36.01,38.0,33.128,37.936,35.203
35.132,36.238,37.936,33.092,37.96,35.236999999999995
35.077,36.452,37.876,33.053000000000004,37.965,35.265
35.018,36.65,37.82,33.015,37.954,35.289
34.957,36.827,37.768,32.982,37.931,35.31
34.894,36.984,37.718,32.959,37.899,35.327
34.83,37.118,37.67,32.952,37.861999999999995,35.34
34.763000000000005,37.23,37.624,32.964,37.821999999999996,35.349000000000004
34.696,37.32,37.579,33.001999999999995,37.78,35.354
34.628,37.388000000000005,37.536,33.071999999999996,37.736,35.355
34.56,37.436,37.495,33.175,37.689,35.351
34.493,37.467,37.454,33.316,37.641999999999996,35.343
34.425,37.482,37.416,33.496,37.592,35.329
34.359,37.485,37.379,33.716,37.542,35.309
34.293,37.475,37.344,33.974000000000004,37.491,35.283
34.228,37.457,37.311,34.269,37.44,35.25
34.164,37.431,37.278,34.595,37.388000000000005,35.211
34.101,37.402,37.244,34.945,37.333,35.164
34.04,37.37,37.208,35.309,37.278,35.11
33.979,37.336999999999996,37.167,35.678000000000004,37.22,35.048
33.92,37.305,37.121,36.043,37.162,34.978
33.863,37.273,37.069,36.398,37.103,34.900999999999996
33.808,37.243,37.010999999999996,36.736999999999995,37.043,34.818000000000005
33.755,37.215,36.946,37.053000000000004,36.983000000000004,34.733000000000004
33.704,37.187,36.873000000000005,37.344,36.924,34.648
33.657,37.161,36.793,37.606,36.865,34.564
33.611999999999995,37.135999999999996,36.704,37.836999999999996,36.808,34.484
33.571,37.113,36.609,38.035,36.754,34.408
33.533,37.09,36.51,38.2,36.704,34.335
33.498000000000005,37.066,36.411,38.332,36.659,34.264
33.466,37.04,36.312,38.431999999999995,36.619,34.195
33.435,37.013000000000005,36.214,38.501,36.582,34.128
33.406,36.984,36.119,38.544000000000004,36.547,34.063
33.379,36.955,36.029,38.562,36.513000000000005,33.999
33.353,36.925,35.945,38.561,36.478,33.938
33.328,36.896,35.871,38.543,36.443000000000005,33.88
33.304,36.868,35.805,38.513000000000005,36.408,33.825
33.28,36.841,35.748000000000005,38.473,36.369,33.775
33.257,36.814,35.698,38.426,36.327,33.728
33.234,36.786,35.656,38.374,36.281,33.684
33.21,36.754,35.623000000000005,38.319,36.23,33.643
33.188,36.718,35.598,38.263000000000005,36.173,33.605
33.165,36.677,35.582,38.207,36.111999999999995,33.569
33.143,36.631,35.573,38.152,36.046,33.535
33.121,36.58,35.571,38.098,35.976,33.504
33.098,36.525,35.574,38.046,35.904,33.477
33.075,36.463,35.583,37.996,35.830999999999996,33.453
33.053000000000004,36.397,35.596,37.946999999999996,35.758,33.431
33.032,36.328,35.611,37.900999999999996,35.69,33.412
33.014,36.256,35.63,37.856,35.629,33.395
33.001,36.181999999999995,35.65,37.816,35.576,33.378
32.995,36.108000000000004,35.671,37.779,35.531,33.361
33.001,36.035,35.692,37.747,35.495,33.343
33.024,35.963,35.709,37.719,35.468,33.327
33.069,35.893,35.723,37.694,35.45,33.314
33.144,35.826,35.732,37.672,35.439,33.303000000000004
33.251999999999995,35.762,35.738,37.650999999999996,35.436,33.296
33.398,35.702,35.74,37.629,35.441,33.292
33.583,35.645,35.736999999999995,37.604,35.452,33.29
33.808,35.594,35.73,37.575,35.469,33.29
34.073,35.548,35.717,37.544000000000004,35.488,33.289
34.372,35.509,35.698,37.510999999999996,35.508,33.288000000000004
34.702,35.475,35.674,37.477,35.53,33.285
35.055,35.446,35.646,37.443000000000005,35.551,33.284
35.424,35.421,35.614000000000004,37.408,35.571999999999996,33.282
35.799,35.4,35.577,37.371,35.59,33.281
36.173,35.383,35.533,37.328,35.606,33.282
36.537,35.368,35.485,37.28,35.618,33.283
36.885,35.354,35.43,37.224000000000004,35.626999999999995,33.286
37.211,35.342,35.372,37.158,35.633,33.29
37.509,35.333,35.311,37.083,35.635,33.294000000000004
37.774,35.326,35.249,37.0,35.634,33.296
38.003,35.321,35.184,36.911,35.629,33.297
38.193000000000005,35.318000000000005,35.119,36.82,35.621,33.295
38.346,35.317,35.052,36.729,35.608000000000004,33.292
38.461999999999996,35.317,34.985,36.64,35.59,33.286
38.543,35.317,34.917,36.553000000000004,35.567,33.278
38.592,35.318000000000005,34.852,36.47,35.54,33.268
38.611,35.318000000000005,34.788000000000004,36.391,35.507,33.256
38.604,35.316,34.726,36.316,35.468,33.242
38.574,35.312,34.666,36.244,35.423,33.226
38.525,35.306,34.606,36.175,35.373000000000005,33.211
38.46,35.298,34.547,36.109,35.319,33.196
38.383,35.286,34.486999999999995,36.044000000000004,35.262,33.183
38.296,35.272,34.425,35.983000000000004,35.202,33.171
38.202,35.253,34.361999999999995,35.928000000000004,35.139,33.162
38.104,35.23,34.297,35.879,35.074,33.154
38.004,35.202,34.231,35.839,35.006,33.148
37.905,35.169000000000004,34.164,35.809,34.936,33.141999999999996
37.81,35.131,34.097,35.788000000000004,34.864000000000004,33.138000000000005
37.721,35.088,34.03,35.775,34.79,33.135
37.64,35.043,33.964,35.77,34.715,33.135
37.565,34.995,33.899,35.772,34.638000000000005,33.138000000000005
37.498000000000005,34.945,33.838,35.78,34.562,33.146
37.439,34.895,33.781,35.794000000000004,34.486,33.162
37.385999999999996,34.844,33.729,35.811,34.414,33.191
37.341,34.793,33.68,35.83,34.345,33.238
37.301,34.742,33.634,35.848,34.28,33.308
37.266,34.691,33.59,35.864000000000004,34.218,33.407
37.235,34.641999999999996,33.549,35.874,34.16,33.543
37.205999999999996,34.592,33.510999999999996,35.876,34.105,33.721
37.176,34.542,33.476,35.871,34.053000000000004,33.945
37.144,34.492,33.443000000000005,35.858000000000004,34.004,34.218
37.109,34.44,33.412,35.836999999999996,33.957,34.538000000000004
37.068000000000005,34.388000000000005,33.383,35.811,33.913000000000004,34.904
37.02,34.336999999999996,33.356,35.781,33.871,35.306999999999995
36.965,34.285,33.330999999999996,35.747,33.832,35.741
36.900999999999996,34.233000000000004,33.308,35.711999999999996,33.797,36.196
36.827,34.181,33.287,35.674,33.765,36.662
36.745,34.129,33.269,35.633,33.736,37.128
36.656,34.077,33.251999999999995,35.586999999999996,33.711,37.584
36.56,34.024,33.238,35.535,33.688,38.018
36.458,33.972,33.228,35.476,33.667,38.422
36.352,33.919000000000004,33.222,35.41,33.649,38.786
36.243,33.866,33.221,35.338,33.635,39.103
36.133,33.813,33.226,35.262,33.622,39.369
36.025,33.760999999999996,33.236999999999995,35.184,33.611999999999995,39.582
35.918,33.709,33.259,35.106,33.603,39.74
35.817,33.657,33.296,35.029,33.594,39.846
35.72,33.605,33.35,34.951,33.588,39.905
35.631,33.554,33.426,34.873000000000005,33.582,39.92
35.549,33.506,33.528,34.796,33.579,39.898
35.477,33.459,33.661,34.718,33.575,39.843
35.417,33.416,33.826,34.641,33.57,39.762
35.367,33.375,34.025999999999996,34.564,33.562,39.66
35.327,33.336,34.259,34.489000000000004,33.549,39.543
35.297,33.302,34.523,34.415,33.532,39.415
35.275,33.273,34.813,34.341,33.509,39.277
35.26,33.25,35.122,34.266,33.479,39.134
35.251,33.233000000000004,35.445,34.193000000000005,33.444,38.986
35.247,33.222,35.774,34.12,33.404,38.834
35.248000000000005,33.219,36.103,34.047,33.361,38.679
