Trial 1:0back,Trial 2:2back,Trial 3:3back,Trial 4:2back,Trial 5:3back,Trial 6:0back
36.554,32.175,34.637,35.986999999999995,36.179,34.672
36.525,32.143,34.586,36.018,36.43,34.646
36.496,32.111,34.538000000000004,36.048,36.67,34.62
36.469,32.078,34.492,36.075,36.899,34.593
36.442,32.044000000000004,34.448,36.1,37.113,34.564
36.416,32.008,34.407,36.12,37.311,34.535
36.39,31.971,34.368,36.135,37.492,34.504
36.363,31.930999999999997,34.330999999999996,36.145,37.655,34.473
36.335,31.89,34.296,36.15,37.801,34.441
36.306,31.846999999999998,34.262,36.147,37.93,34.409
36.275,31.805,34.23,36.139,38.041,34.378
36.241,31.763,34.198,36.124,38.135,34.348
36.205,31.723000000000003,34.168,36.102,38.213,34.319
36.166,31.684,34.138000000000005,36.075,38.275,34.291
36.124,31.648000000000003,34.11,36.041,38.323,34.264
36.078,31.615,34.082,36.001999999999995,38.357,34.239000000000004
36.029,31.585,34.056,35.957,38.379,34.215
35.977,31.559,34.031,35.909,38.389,34.193000000000005
35.922,31.535999999999998,34.007,35.857,38.389,34.171
35.866,31.517,33.985,35.802,38.38,34.150999999999996
35.808,31.502,33.964,35.744,38.363,34.132
35.749,31.494,33.943000000000005,35.683,38.336999999999996,34.113
35.689,31.494,33.922,35.619,38.305,34.095
35.63,31.505,33.9,35.553000000000004,38.266999999999996,34.077
35.571999999999996,31.531,33.876999999999995,35.485,38.225,34.06
35.516999999999996,31.574,33.852,35.416,38.177,34.043
35.464,31.638,33.825,35.346,38.126,34.025999999999996
35.415,31.726999999999997,33.797,35.274,38.071999999999996,34.01
35.371,31.844,33.768,35.201,38.016999999999996,33.994
35.333,31.993000000000002,33.739000000000004,35.126,37.959,33.98
35.302,32.176,33.71,35.05,37.900999999999996,33.966
35.277,32.396,33.681999999999995,34.973,37.841,33.954
35.26,32.652,33.654,34.896,37.78,33.942
35.251,32.945,33.626999999999995,34.817,37.719,33.931
35.249,33.274,33.601,34.738,37.656,33.921
35.255,33.634,33.575,34.659,37.593,33.91
35.266999999999996,34.024,33.551,34.579,37.529,33.9
35.286,34.438,33.527,34.499,37.464,33.89
35.311,34.872,33.503,34.419000000000004,37.397,33.88
35.34,35.32,33.481,34.34,37.33,33.868
35.372,35.778,33.459,34.260999999999996,37.260999999999996,33.856
35.408,36.24,33.439,34.183,37.19,33.844
35.445,36.701,33.419000000000004,34.105,37.118,33.830999999999996
35.483000000000004,37.157,33.4,34.028,37.044000000000004,33.818000000000005
35.521,37.602,33.381,33.952,36.969,33.804
35.558,38.033,33.363,33.878,36.893,33.791
35.593,38.446999999999996,33.347,33.804,36.815,33.777
35.625,38.841,33.33,33.733000000000004,36.738,33.764
35.655,39.213,33.315,33.663000000000004,36.661,33.751
35.681,39.56,33.301,33.595,36.584,33.738
35.703,39.882,33.288000000000004,33.528,36.508,33.726
35.72,40.176,33.275999999999996,33.461999999999996,36.435,33.715
35.733000000000004,40.443000000000005,33.265,33.397,36.364000000000004,33.704
35.74,40.681999999999995,33.253,33.333,36.296,33.695
35.743,40.891999999999996,33.241,33.27,36.233000000000004,33.686
35.742,41.074,33.228,33.208,36.174,33.678000000000004
35.735,41.228,33.213,33.146,36.12,33.67
35.724000000000004,41.356,33.196999999999996,33.085,36.071999999999996,33.662
35.708,41.457,33.179,33.025,36.031,33.653
35.688,41.533,33.159,32.967,35.996,33.644
35.665,41.586000000000006,33.135999999999996,32.911,35.968,33.635
35.639,41.617,33.111,32.858000000000004,35.946999999999996,33.624
35.609,41.629,33.083,32.806999999999995,35.933,33.611999999999995
35.576,41.622,33.053000000000004,32.758,35.925,33.599000000000004
35.54,41.598,33.021,32.713,35.924,33.584
35.501,41.558,32.986999999999995,32.67,35.928000000000004,33.568000000000005
35.46,41.504,32.951,32.629,35.937,33.55
35.418,41.438,32.913000000000004,32.591,35.95,33.531
35.375,41.361000000000004,32.873000000000005,32.554,35.967,33.513000000000005
35.332,41.273999999999994,32.832,32.518,35.986,33.494
35.29,41.178999999999995,32.791,32.484,36.007,33.477
35.248000000000005,41.077,32.749,32.451,36.028,33.461999999999996
35.208,40.97,32.708,32.419000000000004,36.05,33.45
35.17,40.858000000000004,32.67,32.387,36.071,33.443000000000005
35.135,40.743,32.634,32.357,36.092,33.441
35.102,40.626999999999995,32.601,32.328,36.113,33.446
35.071999999999996,40.509,32.571999999999996,32.301,36.131,33.458
35.043,40.39,32.547,32.275,36.149,33.48
35.016999999999996,40.273,32.528,32.25,36.165,33.512
34.993,40.156,32.515,32.226,36.178000000000004,33.555
34.971,40.041,32.510999999999996,32.204,36.189,33.611
34.95,39.928000000000004,32.516,32.181,36.196999999999996,33.679
34.93,39.816,32.535,32.158,36.202,33.760999999999996
34.911,39.705999999999996,32.569,32.135,36.204,33.858000000000004
34.891,39.597,32.621,32.111,36.202,33.969
34.872,39.488,32.695,32.086,36.196999999999996,34.094
34.851,39.38,32.792,32.06,36.187,34.234
34.830999999999996,39.272,32.915,32.034,36.174,34.387
34.81,39.164,33.066,32.007,36.156,34.553000000000004
34.788000000000004,39.055,33.243,31.98,36.134,34.728
34.766,38.944,33.448,31.951999999999998,36.108000000000004,34.911
34.743,38.833,33.679,31.924,36.079,35.1
34.72,38.721,33.934,31.897,36.046,35.291
34.695,38.609,34.21,31.87,36.009,35.483000000000004
34.67,38.497,34.505,31.844,35.969,35.67
34.643,38.385,34.815,31.82,35.927,35.853
34.615,38.275,35.135,31.796999999999997,35.881,36.027
34.586,38.168,35.461999999999996,31.775,35.833,36.191
34.556999999999995,38.064,35.791,31.754,35.783,36.343
34.528,37.965,36.119,31.734,35.731,36.483000000000004
34.5,37.87,36.441,31.715,35.678000000000004,36.609
34.472,37.782,36.754,31.697,35.623000000000005,36.72
34.444,37.7,37.055,31.68,35.567,36.817
34.418,37.626,37.342,31.662,35.510999999999996,36.899
34.393,37.561,37.611,31.646,35.453,36.966
34.37,37.504,37.861,31.629,35.397,37.019
34.348,37.455,38.091,31.612,35.341,37.058
34.329,37.417,38.299,31.596,35.286,37.085
34.311,37.387,38.485,31.579,35.233000000000004,37.1
34.296,37.368,38.649,31.563000000000002,35.181,37.104
34.282,37.358000000000004,38.792,31.548000000000002,35.131,37.099000000000004
34.269,37.357,38.915,31.531999999999996,35.083,37.086
34.258,37.365,39.018,31.516,35.036,37.067
34.248000000000005,37.381,39.104,31.5,34.992,37.042
34.238,37.403,39.173,31.483,34.948,37.014
34.228,37.431999999999995,39.227,31.465,34.905,36.983000000000004
34.218,37.467,39.266999999999996,31.445999999999998,34.863,36.952
34.208,37.506,39.295,31.426,34.821999999999996,36.919000000000004
34.199,37.549,39.311,31.405,34.781,36.885999999999996
34.189,37.593,39.316,31.383000000000003,34.74,36.854
34.18,37.638000000000005,39.312,31.36,34.699,36.82
34.171,37.681999999999995,39.298,31.337,34.657,36.787
34.162,37.724000000000004,39.274,31.314,34.614000000000004,36.751999999999995
34.153,37.763000000000005,39.242,31.291999999999998,34.571999999999996,36.716
34.144,37.797,39.2,31.269000000000002,34.528,36.678000000000004
34.135,37.826,39.15,31.246,34.484,36.639
34.126,37.849000000000004,39.091,31.224,34.44,36.597
34.117,37.865,39.025,31.201999999999998,34.396,36.553000000000004
34.107,37.874,38.951,31.18,34.352,36.507
34.097,37.876,38.869,31.159000000000002,34.309,36.46
34.086999999999996,37.87,38.782,31.139,34.266,36.413000000000004
34.076,37.856,38.689,31.119,34.225,36.366
34.066,37.834,38.593,31.099,34.186,36.32
34.055,37.806,38.493,31.081,34.149,36.275
34.044000000000004,37.771,38.391,31.064,34.114000000000004,36.231
34.033,37.731,38.288000000000004,31.049,34.082,36.189
34.022,37.685,38.184,31.035,34.052,36.148
34.010999999999996,37.635,38.08,31.02,34.024,36.108000000000004
33.999,37.58,37.975,31.005,33.998000000000005,36.069
33.986,37.522,37.871,30.99,33.972,36.029
33.973,37.461,37.766,30.973000000000003,33.948,35.989000000000004
33.96,37.398,37.662,30.955,33.924,35.95
33.946999999999996,37.330999999999996,37.556999999999995,30.935,33.900999999999996,35.91
33.935,37.262,37.453,30.914,33.878,35.871
33.922,37.19,37.349000000000004,30.891,33.856,35.833
33.911,37.116,37.246,30.868000000000002,33.834,35.796
33.9,37.038000000000004,37.143,30.845,33.813,35.762
33.889,36.957,37.041,30.822,33.791,35.729
33.88,36.874,36.94,30.8,33.77,35.698
33.87,36.788000000000004,36.84,30.779,33.749,35.67
33.861,36.7,36.742,30.758000000000003,33.728,35.644
33.852,36.611,36.646,30.737,33.707,35.621
33.842,36.52,36.553000000000004,30.715,33.686,35.6
33.830999999999996,36.428000000000004,36.463,30.693,33.665,35.583
33.819,36.334,36.378,30.669,33.644,35.569
33.806999999999995,36.24,36.297,30.644000000000002,33.623000000000005,35.559
33.795,36.145,36.222,30.618000000000002,33.602,35.553000000000004
33.784,36.049,36.154,30.589000000000002,33.580999999999996,35.551
33.773,35.953,36.095,30.559,33.56,35.554
33.763000000000005,35.858000000000004,36.044000000000004,30.528000000000002,33.54,35.561
33.754,35.765,36.004,30.497,33.52,35.571999999999996
33.745,35.673,35.974000000000004,30.468000000000004,33.501,35.586999999999996
33.738,35.583,35.954,30.439,33.483000000000004,35.604
33.731,35.496,35.944,30.413,33.466,35.624
33.726,35.411,35.944,30.389,33.449,35.646
33.721,35.329,35.953,30.369,33.431999999999995,35.67
33.717,35.25,35.969,30.351999999999997,33.416,35.696
33.713,35.173,35.993,30.34,33.4,35.722
33.709,35.098,36.022,30.333000000000002,33.384,35.749
33.705,35.025999999999996,36.055,30.333000000000002,33.368,35.775
33.7,34.955999999999996,36.092,30.340999999999998,33.351,35.8
33.694,34.888000000000005,36.131,30.361,33.334,35.823
33.687,34.821,36.172,30.396,33.316,35.844
33.676,34.756,36.213,30.449,33.299,35.861999999999995
33.663000000000004,34.692,36.254,30.523000000000003,33.282,35.876
33.647,34.63,36.294000000000004,30.623,33.266,35.885999999999996
33.628,34.569,36.332,30.750999999999998,33.251,35.893
33.606,34.509,36.368,30.909000000000002,33.236999999999995,35.895
33.580999999999996,34.452,36.400999999999996,31.1,33.224000000000004,35.894
33.553000000000004,34.396,36.43,31.324,33.211999999999996,35.89
33.522,34.343,36.455,31.581,33.2,35.882
33.488,34.291,36.475,31.87,33.188,35.87
33.453,34.24,36.491,32.189,33.176,35.855
33.416,34.191,36.501,32.535,33.164,35.836999999999996
33.378,34.144,36.506,32.904,33.150999999999996,35.816
33.339,34.099000000000004,36.506,33.292,33.139,35.792
33.3,34.055,36.501,33.693000000000005,33.126,35.765
33.263000000000005,34.014,36.491,34.103,33.113,35.735
33.228,33.975,36.477,34.516999999999996,33.1,35.704
33.196,33.937,36.459,34.931,33.086,35.672
33.167,33.900999999999996,36.438,35.339,33.071,35.639
33.141999999999996,33.866,36.414,35.738,33.056,35.606
33.121,33.832,36.387,36.124,33.04,35.574
33.104,33.798,36.357,36.494,33.022,35.543
33.092,33.765,36.323,36.845,33.004,35.512
33.085,33.73,36.286,37.176,32.985,35.483000000000004
33.083,33.696,36.245,37.483000000000004,32.965,35.454
33.088,33.661,36.201,37.766,32.944,35.426
33.101,33.626,36.154,38.025,32.921,35.398
33.124,33.592,36.103,38.258,32.896,35.37
33.158,33.558,36.05,38.466,32.872,35.342
33.205999999999996,33.525999999999996,35.993,38.649,32.846,35.313
33.271,33.495,35.934,38.806999999999995,32.821,35.283
33.354,33.466,35.873000000000005,38.94,32.794000000000004,35.251999999999995
33.458,33.439,35.811,39.05,32.766,35.222
33.582,33.412,35.747,39.137,32.736999999999995,35.192
33.727,33.385999999999996,35.683,39.202,32.707,35.163000000000004
33.891999999999996,33.361,35.618,39.247,32.676,35.134
34.077,33.336,35.552,39.273,32.645,35.107
34.28,33.312,35.486999999999995,39.281,32.613,35.08
34.498000000000005,33.289,35.421,39.274,32.583,35.053000000000004
34.728,33.266999999999996,35.356,39.254,32.553000000000004,35.027
34.966,33.246,35.291,39.221,32.524,35.001
35.209,33.226,35.228,39.177,32.497,34.976
35.453,33.208,35.165,39.122,32.471,34.951
35.693000000000005,33.191,35.103,39.06,32.448,34.926
35.927,33.175,35.042,38.99,32.427,34.900999999999996
36.150999999999996,33.161,34.981,38.915,32.41,34.876
36.363,33.148,34.92,38.834,32.399,34.851
36.561,33.135999999999996,34.858000000000004,38.749,32.394,34.825
36.742,33.126,34.797,38.662,32.398,34.799
36.906,33.116,34.735,38.571999999999996,32.413000000000004,34.772
37.051,33.105,34.674,38.48,32.439,34.746
37.177,33.094,34.613,38.388000000000005,32.48,34.721
37.283,33.080999999999996,34.554,38.297,32.538000000000004,34.696
37.371,33.066,34.497,38.207,32.613,34.671
37.44,33.05,34.442,38.119,32.708,34.646
37.492,33.033,34.39,38.034,32.825,34.622
37.528,33.014,34.34,37.951,32.963,34.599000000000004
37.55,32.995,34.292,37.871,33.124,34.575
37.56,32.975,34.246,37.792,33.308,34.552
37.56,32.953,34.201,37.716,33.514,34.53
37.55,32.931,34.158,37.64,33.74,34.507
37.533,32.908,34.116,37.565,33.986,34.485
37.51,32.884,34.076,37.491,34.248000000000005,34.464
37.482,32.86,34.037,37.415,34.524,34.443000000000005
37.451,32.835,33.999,37.336999999999996,34.811,34.424
37.418,32.81,33.963,37.256,35.105,34.405
37.385,32.785,33.928000000000004,37.172,35.400999999999996,34.387
37.351,32.76,33.894,37.086,35.696999999999996,34.37
37.319,32.734,33.861,36.996,35.988,34.354
37.287,32.708,33.829,36.904,36.271,34.339
37.257,32.681,33.798,36.811,36.543,34.324
37.228,32.653,33.766999999999996,36.716,36.802,34.31
37.201,32.624,33.736999999999995,36.622,37.046,34.296
37.174,32.595,33.707,36.53,37.274,34.284
37.149,32.565,33.676,36.442,37.485,34.272
37.125,32.534,33.644,36.358000000000004,37.678000000000004,34.26
37.101,32.503,33.611999999999995,36.282,37.852,34.249
37.078,32.472,33.579,36.213,38.009,34.236999999999995
37.054,32.442,33.546,36.153,38.147,34.225
37.028,32.412,33.513000000000005,36.102,38.268,34.213
37.0,32.382,33.481,36.062,38.373000000000005,34.199
36.971,32.352,33.449,36.032,38.461,34.184
36.939,32.323,33.418,36.012,38.534,34.168
36.905,32.294000000000004,33.387,36.001999999999995,38.593,34.150999999999996
36.869,32.265,33.357,36.003,38.637,34.134
36.829,32.236,33.327,36.013000000000005,38.668,34.116
36.787,32.208,33.297,36.03,38.687,34.097
36.742,32.181,33.268,36.055,38.694,34.078
36.694,32.154,33.24,36.085,38.693000000000005,34.06
36.644,32.126999999999995,33.211999999999996,36.118,38.683,34.042
36.591,32.101,33.185,36.153,38.665,34.024
36.536,32.075,33.159,36.189,38.641,34.007
36.479,32.049,33.133,36.226,38.61,33.991
36.421,32.024,33.108000000000004,36.262,38.574,33.975
36.363,31.999000000000002,33.084,36.296,38.533,33.961
36.305,31.975,33.062,36.327,38.488,33.948
36.249,31.951,33.04,36.354,38.44,33.935
36.195,31.927,33.02,36.376999999999995,38.389,33.924
36.145,31.904,33.001,36.396,38.336,33.914
36.099000000000004,31.881999999999998,32.984,36.409,38.281,33.904
36.058,31.859,32.969,36.419000000000004,38.225,33.896
36.024,31.836,32.955,36.423,38.169000000000004,33.888000000000005
35.995,31.811,32.942,36.423,38.113,33.88
35.974000000000004,31.785999999999998,32.928000000000004,36.418,38.058,33.871
35.959,31.759,32.914,36.41,38.004,33.861999999999995
35.952,31.73,32.898,36.397,37.951,33.852
35.952,31.7,32.882,36.38,37.899,33.84
35.96,31.668000000000003,32.864000000000004,36.358000000000004,37.848,33.827
35.975,31.634,32.845,36.333,37.798,33.812
35.995,31.601,32.825,36.302,37.749,33.796
36.02,31.566999999999997,32.805,36.268,37.699,33.778
36.049,31.533,32.785,36.23,37.649,33.759
36.082,31.498,32.764,36.189,37.598,33.739000000000004
36.117,31.464000000000002,32.744,36.143,37.544000000000004,33.718
36.153,31.43,32.724000000000004,36.095,37.486999999999995,33.696
36.191,31.398000000000003,32.705999999999996,36.043,37.429,33.675
36.229,31.366999999999997,32.689,35.988,37.367,33.654
36.266,31.339000000000002,32.672,35.93,37.303000000000004,33.634
36.301,31.315,32.657,35.868,37.238,33.614000000000004
36.334,31.296,32.641,35.804,37.171,33.596
36.364000000000004,31.284000000000002,32.625,35.736999999999995,37.105,33.577
36.39,31.281999999999996,32.609,35.668,37.039,33.56
36.412,31.291999999999998,32.592,35.597,36.974000000000004,33.545
36.43,31.316999999999997,32.575,35.524,36.912,33.531
36.444,31.36,32.556999999999995,35.45,36.854,33.52
36.452,31.426,32.538000000000004,35.375,36.8,33.513000000000005
36.455999999999996,31.517,32.519,35.298,36.75,33.51
36.455,31.638,32.499,35.221,36.705,33.513000000000005
36.448,31.791999999999998,32.478,35.144,36.665,33.523
36.436,31.982,32.455,35.066,36.632,33.542
36.419000000000004,32.209,32.431,34.99,36.605,33.571999999999996
36.398,32.474000000000004,32.406,34.914,36.583,33.613
36.373000000000005,32.778,32.379,34.839,36.567,33.666
36.345,33.119,32.35,34.766,36.556999999999995,33.735
36.315,33.495,32.319,34.693000000000005,36.551,33.819
36.282,33.902,32.287,34.62,36.55,33.919000000000004
36.247,34.335,32.253,34.548,36.552,34.035
36.211,34.79,32.218,34.476,36.558,34.167
36.172,35.260999999999996,32.181,34.404,36.566,34.316
36.132,35.743,32.141999999999996,34.333,36.577,34.479
36.091,36.23,32.103,34.260999999999996,36.589,34.657
36.048,36.716,32.064,34.19,36.602,34.847
36.004,37.198,32.025,34.118,36.616,35.047
35.959,37.668,31.987,34.047,36.628,35.256
35.914,38.124,31.949,33.977,36.639,35.471
35.868,38.562,31.913,33.907,36.648,35.688
35.821999999999996,38.978,31.879,33.839,36.655,35.905
35.775,39.37,31.849,33.772,36.658,36.119
35.729,39.736,31.822,33.707,36.658,36.328
35.683,40.074,31.799,33.644,36.655,36.527
35.638000000000005,40.383,31.78,33.583,36.648,36.716
35.593,40.663000000000004,31.766,33.523,36.638000000000005,36.893
35.548,40.913000000000004,31.759,33.466,36.625,37.056
35.504,41.13399999999999,31.759,33.41,36.61,37.205
35.461,41.327,31.769000000000002,33.357,36.593,37.339
35.418,41.49100000000001,31.791999999999998,33.306,36.574,37.459
35.376,41.628,31.829,33.256,36.555,37.563
35.335,41.738,31.881999999999998,33.208,36.533,37.653
35.296,41.824,31.956,33.163000000000004,36.510999999999996,37.729
35.258,41.885,32.051,33.118,36.486,37.79
35.222,41.924,32.171,33.077,36.46,37.838
35.187,41.94,32.319,33.037,36.431999999999995,37.872
35.153,41.937,32.494,33.001,36.400999999999996,37.895
35.119,41.915,32.699,32.967,36.369,37.906
35.086,41.875,32.933,32.935,36.334,37.908
35.053000000000004,41.818000000000005,33.196,32.906,36.297,37.902
35.022,41.747,33.485,32.878,36.257,37.888000000000005
34.991,41.662,33.799,32.853,36.214,37.868
34.961,41.565,34.134,32.83,36.169000000000004,37.843
34.931,41.457,34.486,32.808,36.121,37.816
34.902,41.341,34.851,32.786,36.071999999999996,37.786
34.874,41.217,35.223,32.765,36.022,37.755
34.848,41.089,35.598,32.743,35.97,37.722
34.821999999999996,40.957,35.969,32.72,35.918,37.69
34.799,40.823,36.334,32.696,35.866,37.656
34.775999999999996,40.688,36.688,32.67,35.814,37.623000000000005
34.754,40.554,37.029,32.644,35.762,37.589
34.733000000000004,40.42,37.352,32.617,35.71,37.554
34.711999999999996,40.288000000000004,37.656,32.589,35.659,37.52
34.692,40.158,37.94,32.561,35.608000000000004,37.484
34.672,40.03,38.203,32.533,35.558,37.449
34.650999999999996,39.904,38.444,32.504,35.509,37.413000000000004
34.631,39.78,38.664,32.476,35.461,37.376999999999995
34.61,39.66,38.863,32.448,35.413000000000004,37.341
34.589,39.542,39.041,32.421,35.365,37.305
34.569,39.427,39.198,32.393,35.317,37.266999999999996
34.55,39.313,39.334,32.366,35.271,37.229
34.533,39.201,39.449,32.339,35.224000000000004,37.19
34.518,39.089,39.544000000000004,32.312,35.177,37.15
34.504,38.977,39.621,32.285,35.131,37.109
34.492,38.866,39.679,32.259,35.083,37.066
34.483000000000004,38.753,39.719,32.234,35.036,37.021
34.474000000000004,38.641,39.745,32.209,34.988,36.975
34.467,38.529,39.756,32.184,34.94,36.927
34.46,38.417,39.754,32.16,34.893,36.879
34.452,38.306,39.741,32.137,34.847,36.829
34.445,38.196999999999996,39.718,32.116,34.801,36.78
34.437,38.091,39.685,32.096,34.756,36.733000000000004
34.429,37.989000000000004,39.641999999999996,32.077,34.713,36.686
34.42,37.893,39.592,32.061,34.67,36.641999999999996
34.412,37.804,39.533,32.046,34.629,36.601
34.402,37.722,39.467,32.032,34.589,36.563
34.391,37.65,39.394,32.02,34.55,36.529
34.379,37.588,39.316,32.008,34.514,36.497
34.366,37.535,39.232,31.996,34.479,36.47
34.353,37.494,39.145,31.984,34.445,36.446999999999996
34.339,37.463,39.055,31.971,34.412,36.428000000000004
34.323,37.443000000000005,38.961999999999996,31.956999999999997,34.38,36.414
34.306,37.431999999999995,38.868,31.941999999999997,34.348,36.404
34.288000000000004,37.43,38.772,31.926,34.317,36.399
34.268,37.437,38.676,31.909000000000002,34.287,36.399
34.248000000000005,37.452,38.579,31.893,34.258,36.403
34.228,37.473,38.481,31.875,34.231,36.41
34.207,37.499,38.383,31.857,34.205999999999996,36.421
34.186,37.531,38.284,31.839000000000002,34.183,36.435
34.166,37.566,38.186,31.82,34.161,36.452
34.146,37.604,38.089,31.801,34.141,36.471
34.126999999999995,37.644,37.992,31.781999999999996,34.122,36.491
34.11,37.685,37.897,31.761999999999997,34.103,36.513000000000005
34.095,37.725,37.802,31.74,34.084,36.536
34.08,37.763000000000005,37.709,31.715999999999998,34.064,36.559
34.067,37.797,37.616,31.691,34.043,36.582
34.055,37.827,37.523,31.665,34.02,36.604
34.043,37.852,37.431,31.636999999999997,33.996,36.624
34.032,37.871,37.34,31.61,33.971,36.641
34.021,37.884,37.249,31.583000000000002,33.945,36.655
34.01,37.891,37.158,31.557,33.918,36.666
33.998000000000005,37.891,37.068000000000005,31.533,33.89,36.672
33.986999999999995,37.885,36.979,31.51,33.861999999999995,36.674
33.975,37.873000000000005,36.893,31.488000000000003,33.834,36.671
33.961999999999996,37.855,36.811,31.468000000000004,33.806999999999995,36.664
33.949,37.830999999999996,36.734,31.449,33.779,36.652
33.935,37.801,36.663000000000004,31.43,33.751999999999995,36.635999999999996
33.92,37.766,36.6,31.41,33.725,36.617
33.904,37.726,36.545,31.39,33.698,36.594
33.885999999999996,37.681,36.5,31.369,33.672,36.569
33.866,37.632,36.465,31.346999999999998,33.647,36.542
33.843,37.578,36.44,31.323,33.624,36.513000000000005
33.818000000000005,37.519,36.425,31.296,33.603,36.484
33.792,37.455,36.421,31.268,33.583,36.454
33.763000000000005,37.387,36.425,31.237,33.565,36.425
33.732,37.316,36.438,31.205,33.548,36.396
33.699,37.24,36.455999999999996,31.171999999999997,33.531,36.369
33.664,37.161,36.48,31.136,33.515,36.343
33.628,37.08,36.508,31.1,33.499,36.318000000000005
33.59,36.997,36.539,31.064,33.483000000000004,36.294000000000004
33.552,36.912,36.571,31.028000000000002,33.467,36.27
33.513000000000005,36.826,36.604,30.991999999999997,33.452,36.246
33.474000000000004,36.739000000000004,36.635999999999996,30.958000000000002,33.436,36.221
33.435,36.65,36.667,30.926,33.419000000000004,36.195
33.398,36.559,36.694,30.896,33.402,36.168
33.363,36.468,36.719,30.869,33.384,36.139
33.328,36.375,36.74,30.846,33.366,36.108000000000004
33.296,36.283,36.757,30.825,33.347,36.077
33.266,36.19,36.769,30.809,33.328,36.043
33.238,36.097,36.777,30.796999999999997,33.31,36.009
33.214,36.005,36.779,30.79,33.293,35.973
33.193000000000005,35.913000000000004,36.777,30.789,33.277,35.937
33.176,35.821,36.771,30.796,33.262,35.900999999999996
33.164,35.73,36.760999999999996,30.813000000000002,33.248000000000005,35.865
33.155,35.639,36.747,30.842,33.234,35.829
33.152,35.549,36.731,30.885,33.221,35.794000000000004
33.153,35.46,36.713,30.945999999999998,33.209,35.758
33.16,35.372,36.694,31.028000000000002,33.196999999999996,35.723
33.175,35.286,36.674,31.133000000000003,33.185,35.687
33.198,35.202,36.653,31.264,33.172,35.650999999999996
33.23,35.12,36.63,31.423000000000002,33.16,35.615
33.275,35.04,36.606,31.611,33.147,35.579
33.333,34.963,36.579,31.828000000000003,33.133,35.542
33.406,34.888000000000005,36.549,32.076,33.118,35.506
33.496,34.815,36.515,32.352,33.101,35.47
33.604,34.745,36.478,32.655,33.084,35.431999999999995
33.73,34.677,36.436,32.983000000000004,33.065,35.395
33.875,34.611999999999995,36.389,33.333,33.044000000000004,35.356
34.037,34.549,36.336999999999996,33.701,33.022,35.316
34.216,34.489000000000004,36.28,34.082,32.997,35.275999999999996
34.409,34.43,36.22,34.473,32.971,35.236
34.614000000000004,34.374,36.156,34.868,32.942,35.196
34.827,34.319,36.089,35.264,32.911,35.159
35.047,34.266,36.021,35.655,32.878,35.123000000000005
35.27,34.215,35.952,36.037,32.844,35.089
35.493,34.165,35.884,36.407,32.809,35.058
35.714,34.117,35.816,36.760999999999996,32.775,35.03
35.928000000000004,34.071,35.749,37.096,32.741,35.005
36.133,34.027,35.683,37.409,32.707,34.982
36.325,33.984,35.619,37.698,32.675,34.961
36.505,33.943000000000005,35.556,37.963,32.643,34.942
36.669000000000004,33.903,35.495,38.202,32.613,34.925
36.818000000000005,33.863,35.435,38.414,32.584,34.909
36.949,33.825,35.376,38.601,32.556999999999995,34.895
37.063,33.787,35.318000000000005,38.762,32.533,34.882
37.16,33.75,35.260999999999996,38.899,32.510999999999996,34.869
37.24,33.714,35.205,39.010999999999996,32.491,34.857
37.303000000000004,33.68,35.148,39.101,32.473,34.844
37.351,33.646,35.092,39.168,32.457,34.83
37.384,33.614000000000004,35.037,39.216,32.442,34.814
37.404,33.583,34.981,39.244,32.43,34.798
37.411,33.553000000000004,34.925,39.255,32.421,34.78
37.409,33.524,34.868,39.25,32.415,34.762
37.399,33.497,34.809,39.23,32.414,34.743
37.381,33.47,34.749,39.196999999999996,32.419000000000004,34.723
37.359,33.444,34.688,39.152,32.433,34.704
37.332,33.419000000000004,34.626999999999995,39.097,32.455999999999996,34.685
37.303000000000004,33.396,34.566,39.034,32.491,34.667
37.272,33.374,34.505,38.963,32.541,34.649
37.24,33.353,34.445,38.885999999999996,32.608000000000004,34.632
37.205999999999996,33.332,34.388000000000005,38.804,32.695,34.615
37.172,33.311,34.332,38.719,32.804,34.598
37.135999999999996,33.29,34.278,38.633,32.935,34.58
37.099000000000004,33.27,34.226,38.545,33.09,34.562
37.061,33.25,34.177,38.455999999999996,33.268,34.542
37.021,33.23,34.131,38.367,33.468,34.522
36.98,33.21,34.086999999999996,38.279,33.69,34.501
36.936,33.191,34.044000000000004,38.192,33.931,34.479
36.89,33.172,34.004,38.106,34.189,34.458
36.841,33.152,33.967,38.022,34.461,34.438
36.792,33.133,33.931999999999995,37.94,34.744,34.42
36.74,33.113,33.899,37.859,35.034,34.403
36.687,33.093,33.869,37.78,35.327,34.389
36.632,33.073,33.841,37.701,35.621,34.378
36.575,33.053000000000004,33.815,37.622,35.911,34.37
36.515,33.032,33.789,37.543,36.194,34.364000000000004
36.453,33.010999999999996,33.764,37.463,36.47,34.36
36.388000000000005,32.99,33.738,37.382,36.734,34.356
36.32,32.97,33.711999999999996,37.298,36.985,34.352
36.249,32.949,33.686,37.213,37.222,34.347
36.177,32.93,33.658,37.126,37.443000000000005,34.34
36.102,32.911,33.629,37.038000000000004,37.647,34.330999999999996
36.027,32.893,33.599000000000004,36.949,37.833,34.319
35.951,32.874,33.567,36.859,38.003,34.306
35.876,32.855,33.534,36.77,38.154,34.289
35.803000000000004,32.836,33.501,36.681999999999995,38.287,34.271
35.733000000000004,32.815,33.465,36.598,38.402,34.251999999999995
35.666,32.793,33.429,36.516999999999996,38.498000000000005,34.232
35.605,32.77,33.391999999999996,36.442,38.576,34.211
35.549,32.747,33.354,36.372,38.638000000000005,34.191
35.5,32.722,33.317,36.31,38.683,34.171
35.459,32.696999999999996,33.281,36.256,38.713,34.152
35.426,32.671,33.247,36.21,38.731,34.134
35.4,32.644,33.214,36.174,38.736,34.117
35.384,32.616,33.181999999999995,36.146,38.73,34.101
35.376,32.586999999999996,33.153,36.126999999999995,38.715,34.086
35.376,32.556999999999995,33.125,36.118,38.693000000000005,34.071
35.384,32.527,33.099000000000004,36.117,38.664,34.056999999999995
35.4,32.495,33.075,36.124,38.63,34.042
35.421,32.464,33.052,36.138000000000005,38.59,34.025999999999996
35.449,32.431999999999995,33.03,36.157,38.547,34.01
35.481,32.4,33.008,36.181,38.499,33.993
35.516999999999996,32.369,32.986,36.208,38.446999999999996,33.975
35.555,32.338,32.964,36.236999999999995,38.391,33.955999999999996
35.596,32.306999999999995,32.942,36.268,38.333,33.936
35.638000000000005,32.275,32.92,36.299,38.273,33.915
35.681,32.243,32.898,36.330999999999996,38.211,33.893
35.724000000000004,32.21,32.876,36.361,38.148,33.87
35.766,32.178000000000004,32.855,36.39,38.086,33.847
35.806999999999995,32.144,32.834,36.416,38.023,33.823
35.846,32.111,32.813,36.44,37.961,33.798
35.882,32.077,32.792,36.46,37.899,33.773
35.916,32.044000000000004,32.772,36.476,37.838,33.746
35.946999999999996,32.010999999999996,32.751999999999995,36.488,37.778,33.72
35.974000000000004,31.978,32.732,36.496,37.718,33.693000000000005
35.997,31.945,32.711999999999996,36.5,37.659,33.667
36.013000000000005,31.913,32.692,36.498000000000005,37.6,33.64
36.024,31.881999999999998,32.672,36.49,37.541,33.615
36.029,31.851999999999997,32.650999999999996,36.478,37.481,33.59
36.027,31.823,32.63,36.461999999999996,37.42,33.568000000000005
36.019,31.794,32.609,36.442,37.358000000000004,33.55
36.005,31.766,32.586999999999996,36.419000000000004,37.294000000000004,33.537
35.984,31.74,32.565,36.391,37.228,33.53
35.959,31.715,32.542,36.359,37.161,33.531
35.929,31.691,32.52,36.324,37.093,33.543
35.896,31.668000000000003,32.498000000000005,36.284,37.025999999999996,33.567
35.859,31.646,32.476,36.24,36.958,33.605
35.82,31.624000000000002,32.454,36.193000000000005,36.891,33.659
35.78,31.601999999999997,32.431999999999995,36.141999999999996,36.826,33.73
35.739000000000004,31.58,32.41,36.088,36.763000000000005,33.82
35.698,31.557,32.388000000000005,36.031,36.703,33.929
35.657,31.534000000000002,32.366,35.972,36.647,34.056
35.617,31.51,32.343,35.911,36.595,34.202
35.578,31.484,32.319,35.848,36.547,34.364000000000004
35.539,31.458000000000002,32.295,35.785,36.504,34.542
35.501999999999995,31.430999999999997,32.27,35.722,36.466,34.735
35.466,31.403000000000002,32.245,35.659,36.433,34.94
35.43,31.374000000000002,32.22,35.596,36.407,35.157
35.394,31.345,32.194,35.534,36.388000000000005,35.382
35.359,31.316,32.168,35.473,36.375,35.613
35.324,31.285999999999998,32.141999999999996,35.411,36.369,35.848
35.289,31.255,32.116,35.349000000000004,36.37,36.083
35.254,31.225,32.089,35.288000000000004,36.376,36.317
35.22,31.194000000000003,32.061,35.228,36.389,36.545
35.187,31.164,32.033,35.169000000000004,36.407,36.766999999999996
35.153,31.136,32.005,35.11,36.429,36.978
35.12,31.11,31.975,35.051,36.454,37.177
35.088,31.088,31.944000000000003,34.992,36.481,37.361999999999995
35.055,31.07,31.912,34.933,36.508,37.531
35.023,31.058000000000003,31.879,34.872,36.535,37.683
34.991,31.053,31.844,34.811,36.561,37.816
34.958,31.059,31.809,34.749,36.584,37.931999999999995
34.925,31.076,31.773000000000003,34.687,36.603,38.03
34.891,31.11,31.737,34.624,36.617,38.111999999999995
34.857,31.164,31.701,34.562,36.626999999999995,38.178000000000004
34.821999999999996,31.241,31.665,34.5,36.632,38.228
34.787,31.346,31.631,34.44,36.631,38.263000000000005
34.751999999999995,31.483,31.596999999999998,34.381,36.626,38.286
34.716,31.653000000000002,31.565,34.324,36.615,38.296
34.681,31.861,31.535,34.269,36.601,38.295
34.645,32.107,31.51,34.215,36.583,38.285
34.61,32.391999999999996,31.488000000000003,34.163000000000004,36.562,38.266999999999996
34.575,32.715,31.471999999999998,34.113,36.538000000000004,38.242
34.541,33.074,31.462,34.064,36.512,38.213
34.507,33.465,31.458000000000002,34.018,36.484,38.18
34.473,33.885,31.462,33.973,36.453,38.145
34.44,34.329,31.476999999999997,33.93,36.42,38.109
34.408,34.791,31.503,33.889,36.384,38.071999999999996
34.376999999999995,35.265,31.543000000000003,33.85,36.346,38.035
34.347,35.747,31.601,33.812,36.306,37.998000000000005
34.319,36.231,31.679000000000002,33.775999999999996,36.264,37.961999999999996
34.292,36.71,31.779,33.74,36.22,37.925
34.268,37.179,31.904,33.705999999999996,36.176,37.888000000000005
34.245,37.634,32.055,33.673,36.13,37.85
34.226,38.071,32.233000000000004,33.641999999999996,36.084,37.809
34.209,38.486999999999995,32.439,33.611,36.038000000000004,37.766999999999996
34.194,38.878,32.672,33.582,35.993,37.723
34.181999999999995,39.242,32.929,33.554,35.949,37.678000000000004
34.172,39.579,33.209,33.527,35.906,37.632
34.164,39.888000000000005,33.509,33.501,35.863,37.585
34.158,40.167,33.825,33.476,35.821,37.538000000000004
34.153,40.418,34.155,33.451,35.778,37.491
34.149,40.64,34.493,33.426,35.736,37.442
34.146,40.832,34.836,33.402,35.693000000000005,37.393
34.143,40.997,35.18,33.376999999999995,35.649,37.342
34.14,41.133,35.521,33.352,35.604,37.289
34.137,41.242,35.855,33.327,35.558,37.235
34.133,41.325,36.178000000000004,33.301,35.512,37.179
34.128,41.38399999999999,36.486999999999995,33.275999999999996,35.465,37.121
34.121,41.42,36.78,33.25,35.418,37.062
34.113,41.435,37.055,33.226,35.37,37.001999999999995
34.104,41.431000000000004,37.311,33.202,35.323,36.942
34.093,41.41,37.545,33.178000000000004,35.275999999999996,36.883
34.080999999999996,41.372,37.758,33.154,35.229,36.826
34.067,41.32,37.949,33.13,35.181999999999995,36.77
34.052,41.255,38.118,33.107,35.135999999999996,36.718
34.036,41.178999999999995,38.264,33.083,35.09,36.67
34.019,41.093,38.39,33.06,35.045,36.626
34.001,40.998000000000005,38.494,33.036,35.001,36.586999999999996
33.984,40.895,38.579,33.013000000000005,34.958,36.554
33.968,40.785,38.646,32.989000000000004,34.916,36.525999999999996
33.952,40.668,38.695,32.965,34.876,36.503
33.936,40.546,38.728,32.941,34.836999999999996,36.486
33.92,40.419000000000004,38.746,32.916,34.799,36.475
33.904,40.288000000000004,38.75,32.891999999999996,34.762,36.47
33.888000000000005,40.154,38.741,32.867,34.725,36.47
33.872,40.019,38.72,32.844,34.688,36.476
33.856,39.882,38.687,32.82,34.652,36.488
33.84,39.745,38.645,32.798,34.616,36.504
33.824,39.608000000000004,38.593,32.775999999999996,34.58,36.525
33.806999999999995,39.473,38.533,32.755,34.545,36.548
33.792,39.34,38.466,32.735,34.51,36.574
33.777,39.21,38.393,32.716,34.476,36.601
33.763000000000005,39.082,38.313,32.696999999999996,34.441,36.628
33.75,38.955999999999996,38.229,32.679,34.407,36.654
33.736999999999995,38.833,38.141,32.661,34.373000000000005,36.68
33.726,38.711,38.05,32.643,34.34,36.704
33.714,38.59,37.957,32.626,34.306999999999995,36.727
33.701,38.469,37.861,32.609,34.275,36.749
33.687,38.348,37.764,32.593,34.243,36.769
33.672,38.228,37.665,32.576,34.213,36.787
33.654,38.108000000000004,37.565,32.561,34.184,36.803000000000004
33.634,37.988,37.463,32.546,34.156,36.816
33.611999999999995,37.87,37.361,32.531,34.128,36.826
33.588,37.753,37.257,32.516,34.101,36.833
33.562,37.639,37.152,32.501,34.075,36.836
33.536,37.529,37.047,32.486,34.049,36.836
33.509,37.424,36.943000000000005,32.469,34.023,36.832
33.481,37.327,36.84,32.452,33.996,36.824
33.452,37.238,36.738,32.434,33.97,36.812
33.423,37.16,36.638000000000005,32.416,33.944,36.797
33.393,37.093,36.541,32.397,33.918,36.778
33.364000000000004,37.037,36.446,32.378,33.893,36.756
33.336,36.993,36.354,32.358000000000004,33.87,36.733000000000004
33.308,36.96,36.266,32.336999999999996,33.848,36.707
33.283,36.939,36.18,32.315,33.827,36.68
33.259,36.929,36.098,32.292,33.806999999999995,36.652
33.238,36.929,36.02,32.266999999999996,33.788000000000004,36.622
33.221,36.939,35.946,32.241,33.769,36.591
33.209,36.959,35.876,32.211999999999996,33.749,36.559
33.202,36.986,35.811,32.181999999999995,33.73,36.524
33.202,37.02,35.751,32.150999999999996,33.71,36.489000000000004
33.21,37.059,35.698,32.118,33.689,36.451
33.228,37.102,35.650999999999996,32.084,33.669000000000004,36.412
33.257,37.148,35.611,32.049,33.648,36.373000000000005
33.3,37.196,35.579,32.012,33.626999999999995,36.333
33.359,37.245,35.555,31.975,33.606,36.293
33.435,37.294000000000004,35.539,31.936,33.585,36.254
33.529,37.343,35.529,31.897,33.563,36.217
33.643,37.39,35.527,31.859,33.54,36.18
33.777,37.434,35.53,31.820999999999998,33.518,36.145
33.931,37.476,35.538000000000004,31.783,33.495,36.109
34.102,37.513000000000005,35.55,31.747,33.472,36.074
34.291,37.546,35.566,31.713,33.45,36.038000000000004
34.494,37.573,35.584,31.682,33.427,36.001999999999995
34.71,37.595,35.605,31.653000000000002,33.405,35.964
34.936,37.611,35.626999999999995,31.629,33.382,35.926
35.168,37.62,35.649,31.61,33.361,35.885
35.403,37.623000000000005,35.672,31.596999999999998,33.341,35.844
35.635999999999996,37.619,35.695,31.59,33.323,35.801
35.865,37.609,35.719,31.592,33.306,35.758
36.086999999999996,37.592,35.742,31.601999999999997,33.29,35.713
36.299,37.569,35.765,31.625,33.275999999999996,35.669000000000004
36.499,37.54,35.787,31.660999999999998,33.262,35.625
36.684,37.504,35.806999999999995,31.715999999999998,33.249,35.580999999999996
36.855,37.463,35.826,31.79,33.236,35.537
37.01,37.415,35.842,31.886999999999997,33.224000000000004,35.495
37.149,37.361,35.856,32.009,33.211,35.453
37.271,37.302,35.866,32.159,33.199,35.412
37.376,37.236999999999995,35.873000000000005,32.336999999999996,33.187,35.373000000000005
37.465,37.169000000000004,35.876,32.544000000000004,33.173,35.336
37.539,37.097,35.875,32.781,33.158,35.301
37.599000000000004,37.023,35.87,33.047,33.141,35.266
37.646,36.945,35.861999999999995,33.339,33.122,35.232
37.681,36.865,35.849000000000004,33.655,33.101,35.199
37.705999999999996,36.782,35.833,33.992,33.08,35.164
37.722,36.696,35.812,34.346,33.058,35.13
37.728,36.609,35.787,34.711999999999996,33.036,35.095
37.728,36.521,35.758,35.086999999999996,33.014,35.061
37.721,36.431999999999995,35.725,35.465,32.993,35.025999999999996
37.709,36.344,35.687,35.843,32.972,34.993
37.693000000000005,36.255,35.644,36.215,32.952,34.961
37.674,36.166,35.598,36.579,32.933,34.93
37.652,36.078,35.548,36.93,32.916,34.9
37.628,35.99,35.496,37.266999999999996,32.9,34.87
37.603,35.902,35.442,37.586,32.885999999999996,34.841
37.576,35.815,35.387,37.885,32.872,34.813
37.548,35.729,35.333,38.162,32.859,34.786
37.516999999999996,35.641999999999996,35.28,38.415,32.846,34.759
37.485,35.556,35.228,38.645,32.830999999999996,34.732
37.452,35.47,35.177,38.849000000000004,32.813,34.705999999999996
37.417,35.384,35.129,39.029,32.793,34.68
37.382,35.297,35.082,39.183,32.771,34.655
37.344,35.21,35.037,39.314,32.745,34.631
37.305,35.123000000000005,34.994,39.423,32.718,34.608000000000004
37.264,35.037,34.952,39.509,32.688,34.586999999999996
37.222,34.953,34.911,39.575,32.656,34.567
37.177,34.869,34.869,39.622,32.623000000000005,34.548
37.131,34.788000000000004,34.828,39.652,32.589,34.53
37.083,34.708,34.784,39.666,32.554,34.513000000000005
37.035,34.631,34.74,39.666,32.52,34.497
36.986999999999995,34.555,34.694,39.650999999999996,32.486999999999995,34.481
36.938,34.483000000000004,34.645,39.624,32.455999999999996,34.466
36.889,34.413000000000004,34.594,39.585,32.427,34.451
36.84,34.347,34.54,39.537,32.402,34.436
36.789,34.283,34.483000000000004,39.48,32.38,34.42
36.736999999999995,34.224000000000004,34.424,39.417,32.361999999999995,34.403
36.684,34.168,34.364000000000004,39.347,32.35,34.385
36.629,34.115,34.302,39.272,32.343,34.366
36.574,34.065,34.241,39.194,32.344,34.347
36.519,34.018,34.18,39.111999999999995,32.353,34.326
36.463,33.974000000000004,34.121,39.027,32.372,34.305
36.406,33.931,34.064,38.941,32.404,34.283
36.351,33.89,34.009,38.855,32.45,34.26
36.297,33.85,33.957,38.766999999999996,32.512,34.236
36.246,33.811,33.907,38.68,32.595,34.211999999999996
36.196999999999996,33.773,33.858000000000004,38.594,32.698,34.187
36.153,33.736,33.811,38.509,32.824,34.163000000000004
36.111999999999995,33.701,33.764,38.424,32.973,34.14
36.078,33.667,33.717,38.341,33.147,34.119
36.049,33.634,33.67,38.259,33.345,34.099000000000004
36.027,33.602,33.623000000000005,38.177,33.565,34.08
36.012,33.571999999999996,33.577,38.094,33.806,34.062
36.003,33.543,33.532,38.010999999999996,34.065,34.045
36.001,33.515,33.489000000000004,37.928000000000004,34.34,34.029
36.006,33.488,33.446999999999996,37.843,34.628,34.014
36.018,33.461999999999996,33.407,37.756,34.926,33.999
36.036,33.437,33.37,37.669000000000004,35.228,33.985
36.059,33.413000000000004,33.334,37.579,35.533,33.971
36.086,33.39,33.301,37.486999999999995,35.836,33.958
36.117,33.37,33.27,37.393,36.133,33.945
36.15,33.35,33.24,37.297,36.422,33.933
36.184,33.332,33.211999999999996,37.202,36.699,33.921
36.219,33.314,33.186,37.108000000000004,36.961999999999996,33.91
36.253,33.297,33.161,37.016,37.209,33.899
36.285,33.28,33.137,36.928000000000004,37.439,33.888000000000005
36.314,33.263000000000005,33.114000000000004,36.845,37.649,33.876999999999995
36.341,33.247,33.092,36.769,37.838,33.866
36.364000000000004,33.232,33.07,36.701,38.008,33.854
36.383,33.216,33.049,36.641999999999996,38.156,33.841
36.399,33.2,33.027,36.593,38.284,33.828
36.411,33.185,33.004,36.555,38.391999999999996,33.812
36.42,33.168,32.98,36.528,38.481,33.795
36.424,33.152,32.955999999999996,36.512,38.552,33.774
36.425,33.134,32.93,36.506,38.606,33.751999999999995
36.421,33.116,32.903,36.51,38.646,33.726
36.413000000000004,33.098,32.876999999999995,36.522,38.673,33.699
36.400999999999996,33.079,32.85,36.541,38.686,33.67
36.385,33.06,32.824,36.566,38.689,33.64
36.364000000000004,33.04,32.798,36.595,38.68,33.61
36.341,33.02,32.773,36.628,38.663000000000004,33.58
36.314,33.0,32.747,36.662,38.637,33.551
36.285,32.981,32.722,36.696,38.604,33.522
36.254,32.961,32.696999999999996,36.729,38.564,33.496
36.221,32.941,32.673,36.760999999999996,38.519,33.471
36.185,32.92,32.649,36.79,38.469,33.449
36.148,32.9,32.626,36.817,38.416,33.43
36.108000000000004,32.88,32.604,36.839,38.361,33.413000000000004
36.067,32.86,32.582,36.859,38.304,33.4
36.025,32.839,32.561,36.874,38.246,33.39
35.982,32.817,32.541,36.885999999999996,38.187,33.383
35.938,32.795,32.522,36.894,38.129,33.38
35.894,32.771,32.503,36.897,38.071,33.38
35.85,32.747,32.484,36.896,38.014,33.384
35.806,32.722,32.466,36.891,37.958,33.394
35.760999999999996,32.696999999999996,32.446999999999996,36.881,37.903,33.412
35.718,32.671,32.429,36.868,37.848,33.438
35.675,32.646,32.412,36.851,37.793,33.476
35.633,32.62,32.395,36.829,37.738,33.525999999999996
35.593,32.595,32.379,36.804,37.681999999999995,33.591
35.553000000000004,32.571,32.363,36.775999999999996,37.626,33.672
35.514,32.547,32.348,36.744,37.567,33.77
35.476,32.524,32.333,36.71,37.507,33.885
35.439,32.501999999999995,32.319,36.672,37.444,34.016999999999996
35.400999999999996,32.48,32.305,36.631,37.38,34.166
35.365,32.458,32.291,36.586999999999996,37.314,34.332
35.328,32.437,32.277,36.538000000000004,37.245,34.510999999999996
35.291,32.416,32.264,36.485,37.174,34.701
35.255,32.395,32.251,36.427,37.101,34.9
35.219,32.376,32.238,36.365,37.025999999999996,35.105
35.181999999999995,32.357,32.227,36.299,36.95,35.311
35.146,32.339,32.216,36.229,36.874,35.516999999999996
35.11,32.323,32.205999999999996,36.157,36.799,35.718
35.073,32.306999999999995,32.196,36.082,36.726,35.912
35.037,32.293,32.187,36.005,36.657,36.097
35.001,32.278,32.177,35.927,36.591,36.271
34.965,32.264,32.167,35.848,36.532,36.433
34.929,32.249,32.155,35.769,36.479,36.582
34.891999999999996,32.233000000000004,32.141999999999996,35.69,36.433,36.718
34.856,32.217,32.126999999999995,35.613,36.396,36.84
34.82,32.199,32.11,35.538000000000004,36.368,36.948
34.786,32.179,32.092,35.467,36.349000000000004,37.042
34.753,32.157,32.071999999999996,35.398,36.338,37.122
34.721,32.132,32.052,35.333,36.336999999999996,37.188
34.692,32.106,32.03,35.269,36.344,37.241
34.665,32.076,32.007,35.208,36.359,37.282
34.64,32.044000000000004,31.984,35.147,36.38,37.311
34.617,32.009,31.96,35.088,36.406,37.33
34.597,31.973000000000003,31.936,35.031,36.436,37.339
34.578,31.934,31.912,34.973,36.468,37.34
34.561,31.893,31.888,34.916,36.501,37.333
34.544000000000004,31.851,31.864,34.859,36.534,37.32
34.527,31.808000000000003,31.840999999999998,34.802,36.567,37.301
34.512,31.764,31.816999999999997,34.744,36.599000000000004,37.275999999999996
34.497,31.719,31.791999999999998,34.686,36.63,37.247
34.482,31.676,31.765,34.628,36.658,37.214
34.467,31.634,31.737,34.57,36.684,37.178000000000004
34.452,31.595,31.706999999999997,34.512,36.708,37.137
34.438,31.558000000000003,31.675,34.455,36.729,37.094
34.424,31.525,31.641,34.398,36.747,37.048
34.41,31.496,31.605,34.342,36.762,36.999
34.395,31.47,31.566999999999997,34.287,36.773,36.946999999999996
34.38,31.447,31.529,34.234,36.78,36.893
34.364000000000004,31.428,31.49,34.183,36.784,36.836999999999996
34.347,31.412,31.451,34.133,36.783,36.779
34.33,31.401999999999997,31.414,34.086,36.778,36.721
34.313,31.399,31.377,34.041,36.768,36.662
34.294000000000004,31.406,31.343000000000004,33.998000000000005,36.753,36.604
34.275,31.425,31.311,33.955999999999996,36.735,36.547
34.255,31.461,31.283,33.915,36.711999999999996,36.491
34.233000000000004,31.517,31.258000000000003,33.875,36.687,36.436
34.211999999999996,31.598000000000003,31.237,33.838,36.657,36.382
34.19,31.706999999999997,31.22,33.802,36.625,36.33
34.169000000000004,31.846999999999998,31.208000000000002,33.769,36.591,36.277
34.149,32.022,31.201,33.739000000000004,36.554,36.224000000000004
34.13,32.234,31.2,33.711,36.515,36.169000000000004
34.111999999999995,32.483000000000004,31.205,33.685,36.473,36.111999999999995
34.096,32.769,31.219,33.662,36.43,36.053000000000004
34.082,33.091,31.241,33.64,36.385,35.993
34.071,33.446,31.275,33.62,36.339,35.931
34.061,33.83,31.320999999999998,33.602,36.291,35.868
34.054,34.239000000000004,31.384,33.584,36.242,35.806
34.047,34.667,31.465,33.567,36.193000000000005,35.746
34.041,35.109,31.566,33.551,36.144,35.688
34.035,35.56,31.69,33.535,36.095,35.633
34.028,36.014,31.838,33.519,36.046,35.582
34.021,36.467,32.009,33.503,35.999,35.537
34.013000000000005,36.913000000000004,32.202,33.485,35.953,35.497
34.003,37.35,32.417,33.467,35.908,35.463
33.991,37.771,32.652,33.448,35.863,35.435
33.978,38.174,32.902,33.427,35.82,35.414
33.963,38.556,33.165,33.405,35.777,35.399
33.946,38.913000000000004,33.437,33.382,35.736,35.389
33.927,39.245,33.714,33.358000000000004,35.695,35.384
33.907,39.55,33.994,33.334,35.655,35.384
33.885,39.827,34.273,33.31,35.615,35.388000000000005
33.861999999999995,40.076,34.547,33.286,35.575,35.396
33.836999999999996,40.297,34.813,33.263000000000005,35.533,35.407
33.811,40.49,35.07,33.24,35.491,35.421
33.784,40.656,35.315,33.218,35.446999999999996,35.438
33.756,40.795,35.547,33.196999999999996,35.402,35.457
33.726,40.908,35.764,33.177,35.355,35.48
33.695,40.996,35.965,33.158,35.306,35.504
33.664,41.06,36.148,33.139,35.256,35.531
33.632,41.101000000000006,36.314,33.12,35.204,35.559
33.599000000000004,41.12,36.463,33.101,35.150999999999996,35.588
33.566,41.119,36.593,33.083,35.097,35.617
33.532,41.099,36.707,33.065,35.043,35.645
33.498000000000005,41.06100000000001,36.805,33.047,34.99,35.672
33.464,41.007,36.889,33.029,34.937,35.696999999999996
33.43,40.937,36.958,33.012,34.885999999999996,35.72
33.397,40.854,37.015,32.996,34.836999999999996,35.74
33.365,40.757,37.06,32.979,34.79,35.757
33.334,40.649,37.093,32.963,34.745,35.77
33.306,40.53,37.117,32.946999999999996,34.702,35.78
33.28,40.403,37.13,32.931,34.661,35.786
33.258,40.269,37.134,32.915,34.622,35.788000000000004
33.239000000000004,40.129,37.128,32.899,34.585,35.785
33.225,39.985,37.113,32.883,34.549,35.779
33.216,39.836,37.089,32.867,34.514,35.768
33.214,39.686,37.055,32.85,34.48,35.753
33.22,39.533,37.010999999999996,32.830999999999996,34.446,35.734
33.235,39.38,36.958,32.812,34.413000000000004,35.711
33.26,39.227,36.897,32.792,34.38,35.684
33.297,39.074,36.827,32.77,34.348,35.654
33.348,38.923,36.751,32.747,34.318000000000005,35.622
33.415,38.772,36.668,32.722,34.289,35.586999999999996
33.499,38.622,36.580999999999996,32.694,34.262,35.551
33.602,38.474000000000004,36.491,32.665,34.236,35.515
33.726,38.326,36.398,32.634,34.21,35.481
33.869,38.178000000000004,36.303000000000004,32.601,34.186,35.448
34.033,38.031,36.208,32.567,34.161,35.417
34.216,37.884,36.114000000000004,32.53,34.137,35.388000000000005
34.416,37.739000000000004,36.021,32.492,34.114000000000004,35.36
34.63,37.595,35.929,32.451,34.09,35.333
34.858000000000004,37.453,35.839,32.409,34.067,35.306999999999995
35.094,37.314,35.751,32.366,34.043,35.281
35.336999999999996,37.179,35.665,32.321999999999996,34.019,35.255
35.582,37.05,35.580999999999996,32.275999999999996,33.995,35.229
35.828,36.928000000000004,35.499,32.23,33.972,35.202
36.07,36.815,35.418,32.184,33.948,35.174
36.306,36.711999999999996,35.34,32.139,33.925,35.145
36.533,36.619,35.262,32.096,33.903,35.114000000000004
36.748000000000005,36.539,35.186,32.055,33.882,35.082
36.951,36.471,35.11,32.016999999999996,33.861,35.049
37.139,36.415,35.035,31.983,33.842,35.015
37.312,36.371,34.961,31.955,33.821999999999996,34.981
37.47,36.338,34.888000000000005,31.932,33.804,34.946999999999996
37.611,36.316,34.817,31.918000000000003,33.785,34.912
37.735,36.306,34.75,31.914,33.768,34.878
37.844,36.306,34.687,31.923000000000002,33.751,34.844
37.937,36.317,34.629,31.947,33.736,34.811
38.015,36.338,34.578,31.99,33.721,34.777
38.078,36.367,34.534,32.052,33.708,34.744
38.129,36.405,34.499,32.139,33.695,34.709
38.168,36.449,34.472,32.25,33.684,34.674
38.196,36.498000000000005,34.455,32.388000000000005,33.673,34.638000000000005
38.214,36.55,34.446999999999996,32.555,33.662,34.602
38.224000000000004,36.605,34.446999999999996,32.751,33.65,34.564
38.226,36.662,34.455,32.976,33.639,34.525999999999996
38.221,36.718,34.47,33.229,33.626999999999995,34.488
38.211,36.773,34.49,33.507,33.613,34.449
38.195,36.827,34.516,33.808,33.599000000000004,34.412
38.175,36.876999999999995,34.546,34.129,33.584,34.375
38.150999999999996,36.923,34.58,34.465,33.568000000000005,34.34
38.123000000000005,36.964,34.617,34.814,33.551,34.306999999999995
38.092,36.999,34.656,35.169000000000004,33.534,34.277
38.056999999999995,37.029,34.696,35.528,33.516999999999996,34.248000000000005
38.02,37.052,34.736999999999995,35.885,33.499,34.221
37.979,37.068000000000005,34.778,36.235,33.482,34.196
37.936,37.077,34.818000000000005,36.575,33.466,34.172
37.891,37.078,34.856,36.900999999999996,33.45,34.149
37.845,37.07,34.891999999999996,37.211,33.433,34.126999999999995
37.797,37.055,34.924,37.501999999999995,33.417,34.107
37.748000000000005,37.032,34.954,37.773,33.402,34.086999999999996
37.7,37.001,34.979,38.022,33.385999999999996,34.067
37.650999999999996,36.961999999999996,35.001,38.248000000000005,33.371,34.047
37.604,36.916,35.018,38.451,33.355,34.028
37.556,36.861999999999995,35.032,38.63,33.339,34.009
37.509,36.8,35.043,38.786,33.323,33.99
37.461,36.732,35.052,38.92,33.305,33.97
37.413000000000004,36.656,35.058,39.032,33.286,33.951
37.364000000000004,36.574,35.062,39.124,33.266,33.931
37.314,36.488,35.064,39.196,33.245,33.911
37.262,36.396,35.063,39.251,33.223,33.891999999999996
37.208,36.301,35.059,39.289,33.2,33.873000000000005
37.152,36.203,35.051,39.311,33.176,33.854
37.093,36.102,35.04,39.319,33.152,33.836999999999996
37.033,36.0,35.025999999999996,39.313,33.126999999999995,33.819
36.971,35.897,35.008,39.294000000000004,33.102,33.802
36.908,35.793,34.986,39.263000000000005,33.076,33.785
36.845,35.689,34.961,39.22,33.049,33.768
36.782,35.586,34.931999999999995,39.168,33.02,33.751999999999995
36.721,35.485,34.9,39.106,32.991,33.736
36.662,35.385999999999996,34.864000000000004,39.037,32.96,33.72
36.607,35.29,34.825,38.961999999999996,32.929,33.705
36.556,35.198,34.782,38.882,32.898,33.691
36.509,35.107,34.736,38.797,32.867,33.677
36.468,35.02,34.687,38.709,32.836999999999996,33.664
36.433,34.935,34.635999999999996,38.62,32.808,33.650999999999996
36.405,34.853,34.585,38.528,32.78,33.64
36.385,34.772,34.533,38.436,32.753,33.63
36.372,34.693000000000005,34.481,38.344,32.727,33.621
36.366,34.616,34.431999999999995,38.251999999999995,32.703,33.614000000000004
36.368,34.54,34.384,38.161,32.68,33.608000000000004
36.375,34.464,34.338,38.071999999999996,32.659,33.603
36.389,34.388000000000005,34.294000000000004,37.985,32.641,33.598
36.407,34.313,34.253,37.9,32.626999999999995,33.592
36.43,34.236999999999995,34.211999999999996,37.816,32.617,33.586
36.455999999999996,34.161,34.173,37.733000000000004,32.613,33.578
36.485,34.086999999999996,34.134,37.650999999999996,32.617,33.568000000000005
36.515,34.015,34.094,37.569,32.631,33.556
36.547,33.945,34.053000000000004,37.486,32.658,33.543
36.579,33.876999999999995,34.010999999999996,37.403,32.699,33.528
36.611,33.813,33.967,37.317,32.757,33.513000000000005
36.641,33.751999999999995,33.922,37.23,32.834,33.498000000000005
36.67,33.694,33.876,37.141,32.933,33.484
36.696,33.639,33.83,37.051,33.056,33.472
36.718,33.586999999999996,33.783,36.959,33.202,33.461999999999996
36.735,33.539,33.736999999999995,36.868,33.372,33.453
36.747,33.493,33.691,36.777,33.567,33.446999999999996
36.753,33.451,33.646,36.69,33.784,33.441
36.751999999999995,33.412,33.601,36.606,34.023,33.435
36.744,33.376999999999995,33.558,36.528,34.279,33.427
36.73,33.345,33.515,36.455,34.55,33.418
36.711,33.317,33.474000000000004,36.389,34.833,33.406
36.687,33.293,33.435,36.33,35.125,33.39
36.659,33.274,33.397,36.279,35.42,33.37
36.628,33.26,33.36,36.235,35.716,33.345
36.595,33.25,33.324,36.201,36.009,33.317
36.56,33.244,33.289,36.174,36.295,33.285
36.523,33.242,33.254,36.156,36.571,33.251
36.484,33.244,33.22,36.146,36.836,33.216
36.443000000000005,33.248000000000005,33.186,36.143,37.085,33.18
36.4,33.254,33.152,36.147,37.319,33.144
36.356,33.262,33.119,36.157,37.535,33.11
36.312,33.271,33.088,36.172,37.733000000000004,33.078
36.268,33.279,33.058,36.191,37.912,33.049
36.223,33.286,33.03,36.213,38.071,33.023
36.178000000000004,33.291,33.004,36.238,38.211,33.0
36.133,33.294000000000004,32.981,36.265,38.330999999999996,32.982
36.088,33.294000000000004,32.96,36.292,38.431,32.968
36.043,33.29,32.941,36.321,38.513000000000005,32.959
35.997,33.283,32.924,36.349000000000004,38.576,32.955
35.952,33.274,32.908,36.376,38.623000000000005,32.958
35.906,33.262,32.891999999999996,36.402,38.655,32.969
35.859,33.247,32.876999999999995,36.426,38.674,32.989000000000004
35.812,33.231,32.861,36.448,38.681,33.021
35.765,33.213,32.846,36.467,38.679,33.065
35.719,33.193000000000005,32.83,36.482,38.67,33.122
35.672,33.171,32.814,36.492,38.653,33.196
35.626,33.147,32.797,36.497,38.629,33.286
35.580999999999996,33.122,32.78,36.496,38.599000000000004,33.394
35.537,33.095,32.760999999999996,36.491,38.564,33.519
35.494,33.067,32.741,36.48,38.523,33.661
35.452,33.038000000000004,32.721,36.464,38.477,33.821
35.411,33.009,32.699,36.443000000000005,38.426,33.996
35.369,32.979,32.676,36.417,38.371,34.186
35.327,32.949,32.653,36.385,38.311,34.387
35.286,32.918,32.629,36.349000000000004,38.248000000000005,34.598
35.245,32.885,32.607,36.309,38.18,34.816
35.204,32.85,32.585,36.264,38.11,35.038000000000004
35.163000000000004,32.813,32.565,36.215,38.038000000000004,35.260999999999996
35.121,32.773,32.547,36.163000000000004,37.964,35.482
35.079,32.73,32.53,36.107,37.889,35.699
35.038000000000004,32.684,32.514,36.048,37.813,35.908
34.997,32.635,32.5,35.986,37.734,36.11
34.957,32.583,32.486,35.922,37.654,36.3
34.919000000000004,32.529,32.474000000000004,35.856,37.573,36.478
34.883,32.473,32.461999999999996,35.79,37.49,36.641999999999996
34.849000000000004,32.416,32.451,35.723,37.406,36.792
34.819,32.358000000000004,32.44,35.655,37.321,36.927
34.792,32.3,32.431,35.588,37.235,37.047
34.766999999999996,32.243,32.421,35.521,37.148,37.150999999999996
34.745,32.188,32.413000000000004,35.455,37.061,37.241
34.725,32.135,32.404,35.389,36.975,37.317
34.705999999999996,32.086,32.395,35.324,36.89,37.38
34.689,32.041,32.385,35.26,36.808,37.431999999999995
34.673,32.0,32.376,35.196999999999996,36.729,37.471
34.658,31.963,32.366,35.135999999999996,36.653,37.501
34.644,31.930999999999997,32.356,35.076,36.582,37.52
34.63,31.903000000000002,32.346,35.018,36.515,37.531
34.616,31.879,32.336,34.96,36.454,37.535
34.601,31.858,32.325,34.902,36.397,37.531
34.586,31.840999999999998,32.314,34.845,36.346,37.522
34.57,31.826999999999998,32.303000000000004,34.787,36.3,37.508
34.553000000000004,31.815,32.29,34.73,36.26,37.489000000000004
34.534,31.804000000000002,32.275999999999996,34.673,36.226,37.466
34.514,31.795,32.260999999999996,34.616,36.199,37.439
34.493,31.785,32.245,34.559,36.18,37.41
34.47,31.775,32.227,34.503,36.169000000000004,37.378
34.446,31.764,32.209,34.446999999999996,36.165,37.344
34.422,31.752,32.19,34.393,36.17,37.306999999999995
34.397,31.738000000000003,32.171,34.34,36.183,37.269
34.371,31.723000000000003,32.154,34.287,36.203,37.228
34.347,31.706999999999997,32.137,34.235,36.231,37.185
34.323,31.691,32.121,34.185,36.264,37.141
34.299,31.674,32.107,34.135999999999996,36.302,37.095
34.275,31.658,32.093,34.088,36.343,37.048
34.251999999999995,31.642,32.079,34.042,36.387,37.0
34.228,31.627,32.065,33.998000000000005,36.431,36.951
34.204,31.612,32.049,33.955,36.474000000000004,36.902
34.18,31.599,32.032,33.914,36.516999999999996,36.854
34.157,31.587,32.012,33.874,36.556999999999995,36.805
34.134,31.575,31.99,33.835,36.593,36.756
34.111999999999995,31.565,31.965999999999998,33.798,36.626,36.707
34.091,31.555,31.938000000000002,33.760999999999996,36.654,36.658
34.071,31.545,31.908,33.726,36.677,36.609
34.051,31.535,31.875999999999998,33.691,36.696,36.559
34.033,31.525,31.842,33.658,36.711,36.51
34.015,31.515,31.807,33.625,36.72,36.461
33.997,31.504,31.771,33.593,36.726,36.412
33.98,31.494,31.736,33.561,36.727,36.364000000000004
33.963,31.483,31.703000000000003,33.529,36.725,36.318000000000005
33.946999999999996,31.471999999999998,31.673000000000002,33.497,36.718,36.272
33.93,31.462,31.645,33.467,36.708,36.229
33.912,31.453000000000003,31.621,33.437,36.696,36.187
33.891999999999996,31.445,31.601999999999997,33.408,36.68,36.147
33.871,31.44,31.586,33.38,36.661,36.109
33.849000000000004,31.438000000000002,31.575,33.354,36.64,36.075
33.826,31.441,31.568,33.33,36.616,36.044000000000004
33.802,31.451,31.566999999999997,33.306999999999995,36.589,36.016999999999996
33.778,31.47,31.57,33.286,36.561,35.993
33.754,31.500999999999998,31.581999999999997,33.266999999999996,36.53,35.974000000000004
33.729,31.548000000000002,31.601999999999997,33.248000000000005,36.498000000000005,35.959
33.704,31.615,31.633000000000003,33.231,36.465,35.949
33.68,31.706,31.678,33.213,36.43,35.943000000000005
33.657,31.826,31.739,33.196,36.394,35.942
33.635999999999996,31.978,31.818,33.179,36.357,35.946
33.617,32.166,31.916999999999998,33.162,36.317,35.953
33.599000000000004,32.391,32.036,33.144,36.275,35.964
33.582,32.656,32.178000000000004,33.125,36.231,35.977
33.567,32.96,32.341,33.105,36.185,35.993
33.554,33.301,32.525,33.085,36.138000000000005,36.01
33.542,33.677,32.729,33.064,36.09,36.028
33.53,34.086,32.953,33.042,36.04,36.046
33.518,34.522,33.194,33.019,35.99,36.066
33.506,34.982,33.449,32.996,35.938,36.085
33.493,35.46,33.716,32.973,35.885999999999996,36.105
33.478,35.951,33.991,32.949,35.833,36.123000000000005
33.461999999999996,36.45,34.272,32.925,35.779,36.14
33.445,36.951,34.555,32.9,35.726,36.155
33.425,37.45,34.835,32.875,35.674,36.168
33.404,37.941,35.111,32.85,35.621,36.177
33.38,38.421,35.378,32.823,35.568000000000005,36.183
33.354,38.885999999999996,35.635,32.796,35.515,36.185
33.326,39.333,35.879,32.766999999999996,35.463,36.185
33.296,39.759,36.11,32.736,35.41,36.181
33.264,40.161,36.325,32.703,35.357,36.175
33.231,40.538000000000004,36.524,32.667,35.305,36.166
33.196999999999996,40.885999999999996,36.707,32.629,35.254,36.156
33.162,41.206,36.874,32.589,35.202,36.144
33.126999999999995,41.495,37.023,32.548,35.150999999999996,36.131
33.092,41.754,37.156,32.506,35.099000000000004,36.116
33.056999999999995,41.983000000000004,37.272,32.464,35.047,36.099000000000004
33.023,42.18,37.372,32.424,34.995,36.080999999999996
32.99,42.347,37.455999999999996,32.385999999999996,34.943000000000005,36.062
32.96,42.483999999999995,37.525999999999996,32.35,34.891,36.042
32.933,42.591,37.580999999999996,32.317,34.839,36.021
32.911,42.67,37.623000000000005,32.288000000000004,34.788000000000004,35.999
32.893,42.721000000000004,37.652,32.263000000000005,34.736999999999995,35.976
32.881,42.747,37.669000000000004,32.242,34.686,35.952
32.876999999999995,42.747,37.675,32.226,34.637,35.928000000000004
32.882,42.725,37.67,32.215,34.589,35.902
32.898,42.681999999999995,37.656,32.21,34.542,35.875
32.929,42.62,37.632,32.213,34.497,35.846
32.975,42.54,37.601,32.225,34.454,35.815
33.041,42.445,37.563,32.247,34.412,35.783
33.128,42.336999999999996,37.519,32.283,34.372,35.75
33.236,42.218,37.47,32.335,34.334,35.716
33.369,42.089,37.416,32.404,34.298,35.68
33.525,41.952,37.359,32.493,34.263000000000005,35.644
33.705,41.809,37.299,32.604,34.231,35.607
33.907,41.662,37.236,32.739000000000004,34.201,35.57
34.13,41.513000000000005,37.171,32.898,34.172,35.532
34.37,41.363,37.104,33.082,34.146,35.494
34.623000000000005,41.213,37.036,33.29,34.122,35.455999999999996
34.887,41.066,36.967,33.519,34.099000000000004,35.418
35.157,40.921,36.898,33.766999999999996,34.076,35.379
35.429,40.779,36.83,34.031,34.054,35.34
35.699,40.641,36.762,34.308,34.033,35.302
35.965,40.507,36.695,34.595,34.012,35.264
36.223,40.376999999999995,36.629,34.887,33.991,35.228
36.469,40.25,36.564,35.181,33.972,35.192
36.7,40.125,36.5,35.472,33.954,35.157
36.916,40.003,36.437,35.757,33.936,35.124
37.114000000000004,39.882,36.374,36.032,33.919000000000004,35.092
37.293,39.760999999999996,36.312,36.294000000000004,33.902,35.06
37.452,39.64,36.25,36.541,33.885,35.03
37.591,39.519,36.187,36.77,33.869,34.999
37.711,39.395,36.124,36.979,33.852,34.969
37.811,39.27,36.06,37.169000000000004,33.835,34.939
37.895,39.141999999999996,35.995,37.338,33.818000000000005,34.908
37.961999999999996,39.013000000000005,35.929,37.486,33.799,34.876999999999995
38.013000000000005,38.881,35.861999999999995,37.613,33.779,34.847
38.051,38.75,35.796,37.72,33.758,34.816
38.077,38.619,35.732,37.808,33.736,34.785
38.092,38.49,35.67,37.876999999999995,33.713,34.754
38.097,38.365,35.611999999999995,37.93,33.689,34.723
38.094,38.246,35.559,37.968,33.665,34.692
38.083,38.134,35.51,37.992,33.639,34.662
38.065,38.031,35.468,38.004,33.614000000000004,34.633
38.042,37.936,35.431,38.005,33.59,34.605
38.013000000000005,37.852,35.400999999999996,37.996,33.568000000000005,34.577
37.981,37.779,35.378,37.978,33.547,34.549
37.945,37.719,35.363,37.952,33.529,34.523
37.906,37.67,35.355,37.919000000000004,33.514,34.496
37.864000000000004,37.633,35.354,37.879,33.501999999999995,34.471
37.821,37.609,35.359,37.835,33.492,34.446
37.775999999999996,37.595,35.37,37.786,33.484,34.422
37.73,37.592,35.385999999999996,37.733000000000004,33.477,34.399
37.683,37.598,35.406,37.676,33.471,34.376
37.634,37.613,35.429,37.615,33.465,34.353
37.585,37.635999999999996,35.455,37.551,33.459,34.33
37.535,37.668,35.483000000000004,37.483000000000004,33.453,34.306999999999995
37.485,37.707,35.513000000000005,37.412,33.446,34.283
37.435,37.754,35.543,37.339,33.438,34.259
37.383,37.806999999999995,35.571999999999996,37.263000000000005,33.429,34.235
37.33,37.867,35.601,37.186,33.419000000000004,34.211999999999996
37.277,37.933,35.626999999999995,37.107,33.407,34.189
37.222,38.004,35.652,37.027,33.394,34.168
37.166,38.079,35.674,36.946,33.381,34.147
37.109,38.158,35.694,36.865,33.366,34.129
37.05,38.238,35.711999999999996,36.782,33.351,34.111
36.99,38.317,35.728,36.698,33.336,34.095
36.928000000000004,38.394,35.741,36.611999999999995,33.321999999999996,34.08
36.864000000000004,38.465,35.751999999999995,36.525999999999996,33.306999999999995,34.065
36.799,38.527,35.760999999999996,36.439,33.293,34.05
36.732,38.580999999999996,35.766999999999996,36.351,33.279,34.035
36.663000000000004,38.623000000000005,35.772,36.263000000000005,33.266,34.019
36.594,38.653,35.774,36.174,33.251999999999995,34.001
36.524,38.671,35.773,36.085,33.236999999999995,33.981
36.454,38.676,35.769,35.998000000000005,33.223,33.961
36.385999999999996,38.667,35.762,35.911,33.207,33.939
36.32,38.644,35.75,35.828,33.189,33.917
36.258,38.609,35.734,35.747,33.169000000000004,33.894
36.2,38.561,35.714,35.67,33.147,33.873000000000005
36.148,38.501999999999995,35.69,35.598,33.121,33.853
36.102,38.433,35.663000000000004,35.53,33.093,33.836
36.064,38.355,35.633,35.467,33.063,33.821
36.032,38.27,35.6,35.411,33.03,33.808
36.009,38.177,35.565,35.363,32.995,33.798
35.994,38.078,35.53,35.321,32.959,33.79
35.988,37.974000000000004,35.493,35.287,32.921,33.784
35.99,37.865,35.455999999999996,35.26,32.883,33.778
36.0,37.753,35.419000000000004,35.24,32.844,33.773
36.016999999999996,37.639,35.38,35.229,32.806,33.768
36.042,37.523,35.342,35.225,32.769,33.760999999999996
36.071999999999996,37.406,35.302,35.23,32.734,33.754
36.107,37.288000000000004,35.262,35.242,32.701,33.745
36.146,37.169000000000004,35.221,35.260999999999996,32.671,33.735
36.187,37.051,35.18,35.286,32.644,33.723
36.23,36.933,35.139,35.316,32.621,33.711
36.272,36.815,35.098,35.35,32.603,33.698
36.314,36.698,35.056999999999995,35.388000000000005,32.591,33.686
36.354,36.58,35.016,35.428000000000004,32.588,33.673
36.391999999999996,36.463,34.976,35.469,32.594,33.661
36.426,36.345,34.937,35.51,32.611999999999995,33.648
36.455999999999996,36.226,34.898,35.55,32.644,33.635999999999996
36.482,36.106,34.86,35.588,32.693000000000005,33.625
36.503,35.986,34.82,35.623000000000005,32.760999999999996,33.613
36.518,35.864000000000004,34.78,35.654,32.85,33.6
36.527,35.742,34.738,35.68,32.961,33.586999999999996
36.531,35.619,34.696,35.699,33.096,33.573
36.529,35.497,34.652,35.711999999999996,33.256,33.558
36.521,35.376,34.608000000000004,35.718,33.44,33.541
36.507,35.256,34.563,35.718,33.648,33.523
36.489000000000004,35.139,34.518,35.711999999999996,33.879,33.505
36.466,35.024,34.473,35.7,34.133,33.486
36.439,34.913000000000004,34.429,35.683,34.407,33.466
36.408,34.805,34.385,35.662,34.698,33.444
36.373000000000005,34.702,34.342,35.638000000000005,35.005,33.423
36.336,34.604,34.3,35.611,35.323,33.4
36.295,34.51,34.259,35.58,35.649,33.376
36.254,34.422,34.219,35.547,35.981,33.352
36.211,34.339,34.18,35.512,36.315,33.328
36.167,34.26,34.143,35.475,36.647,33.303000000000004
36.123000000000005,34.185,34.108000000000004,35.435,36.974000000000004,33.277
36.079,34.114000000000004,34.075,35.394,37.293,33.251
36.034,34.045,34.044000000000004,35.35,37.6,33.226
35.99,33.979,34.016,35.305,37.893,33.2
35.946,33.915,33.989000000000004,35.257,38.171,33.174
35.900999999999996,33.853,33.965,35.205999999999996,38.431,33.149
35.855,33.793,33.943000000000005,35.154,38.673,33.125
35.808,33.736,33.922,35.099000000000004,38.895,33.102
35.760999999999996,33.681999999999995,33.900999999999996,35.042,39.098,33.080999999999996
35.713,33.63,33.881,34.982,39.282,33.063
35.664,33.58,33.861,34.92,39.445,33.048
35.613,33.532,33.842,34.856,39.59,33.039
35.563,33.486,33.821999999999996,34.791,39.716,33.035
35.510999999999996,33.441,33.802,34.726,39.823,33.039
35.459,33.398,33.782,34.661,39.912,33.052
35.406,33.357,33.76,34.597,39.983000000000004,33.075
35.354,33.317,33.739000000000004,34.534,40.037,33.111999999999995
35.303000000000004,33.279,33.715,34.473,40.075,33.162
35.251999999999995,33.242,33.691,34.413000000000004,40.098,33.228
35.203,33.208,33.664,34.356,40.107,33.312
35.154,33.176,33.637,34.301,40.104,33.415
35.107,33.147,33.608000000000004,34.247,40.09,33.536
35.061,33.12,33.577,34.195,40.065,33.677
35.016999999999996,33.097,33.546,34.144,40.032,33.835
34.975,33.076,33.514,34.093,39.991,34.01
34.934,33.058,33.481,34.041,39.944,34.201
34.895,33.044000000000004,33.449,33.99,39.891,34.405
34.857,33.032,33.417,33.936,39.833,34.621
34.819,33.022,33.387,33.882,39.771,34.845
34.781,33.014,33.358000000000004,33.826,39.705,35.076
34.744,33.007,33.330999999999996,33.769,39.635,35.311
34.707,33.001,33.305,33.711,39.561,35.546
34.67,32.996,33.281,33.653,39.485,35.778
34.633,32.992,33.258,33.595,39.407,36.005
34.597,32.988,33.236,33.537,39.329,36.223
34.561,32.984,33.214,33.481,39.251,36.431999999999995
34.525999999999996,32.98,33.193000000000005,33.427,39.174,36.628
34.492,32.975,33.173,33.376,39.098,36.811
34.459,32.971,33.154,33.328,39.025,36.979
34.429,32.966,33.135,33.283,38.954,37.131
34.399,32.959,33.117,33.242,38.885,37.266999999999996
34.372,32.951,33.1,33.205,38.818000000000005,37.387
34.347,32.94,33.083,33.171,38.751,37.491
34.325,32.927,33.068000000000005,33.141,38.685,37.58
34.304,32.91,33.053000000000004,33.115,38.618,37.654
34.285,32.89,33.04,33.091,38.551,37.716
34.268,32.865,33.028,33.07,38.483000000000004,37.766
34.251,32.838,33.016999999999996,33.05,38.413000000000004,37.805
34.236,32.806999999999995,33.007,33.031,38.341,37.835
34.222,32.772,32.999,33.014,38.266999999999996,37.857
34.208,32.734,32.991,32.998000000000005,38.192,37.872
34.194,32.693000000000005,32.984,32.983000000000004,38.117,37.88
34.18,32.649,32.978,32.97,38.042,37.883
34.165,32.603,32.971,32.957,37.969,37.882
34.15,32.556,32.964,32.944,37.899,37.876
34.134,32.509,32.957,32.931999999999995,37.832,37.867
34.117,32.461,32.948,32.921,37.77,37.853
34.1,32.416,32.939,32.91,37.713,37.836999999999996
34.082,32.373000000000005,32.928000000000004,32.899,37.661,37.816
34.064,32.332,32.915,32.888000000000005,37.615,37.791
34.044000000000004,32.296,32.902,32.876,37.576,37.762
34.025,32.263000000000005,32.888000000000005,32.863,37.544000000000004,37.729
34.006,32.233000000000004,32.873000000000005,32.849000000000004,37.52,37.691
33.986999999999995,32.205999999999996,32.857,32.834,37.503,37.649
33.969,32.18,32.841,32.817,37.494,37.603
33.95,32.156,32.824,32.799,37.492,37.553000000000004
33.931,32.133,32.806,32.779,37.498000000000005,37.5
33.911,32.111,32.789,32.758,37.51,37.444
33.891999999999996,32.09,32.771,32.735,37.528,37.385999999999996
33.872,32.07,32.753,32.71,37.552,37.328
33.852,32.05,32.734,32.685,37.579,37.27
33.833,32.03,32.716,32.659,37.607,37.213
33.813,32.009,32.698,32.632,37.637,37.158
33.794000000000004,31.989,32.68,32.605,37.666,37.103
33.775999999999996,31.967,32.662,32.578,37.693000000000005,37.051
33.759,31.945,32.645,32.55,37.717,37.0
33.743,31.921999999999997,32.626999999999995,32.521,37.736999999999995,36.951
33.727,31.898000000000003,32.609,32.491,37.753,36.903
33.711999999999996,31.872,32.59,32.461,37.765,36.857
33.696999999999996,31.845,32.57,32.43,37.772,36.812
33.684,31.815,32.549,32.398,37.775,36.766999999999996
33.673,31.783,32.525,32.366,37.774,36.724000000000004
33.663000000000004,31.748,32.5,32.333,37.77,36.68
33.653,31.71,32.474000000000004,32.299,37.763000000000005,36.637
33.644,31.669,32.446999999999996,32.266,37.754,36.594
33.634,31.625999999999998,32.42,32.235,37.743,36.552
33.623000000000005,31.581,32.393,32.205,37.729,36.510999999999996
33.611,31.534000000000002,32.366,32.178000000000004,37.714,36.471
33.598,31.486,32.339,32.154,37.696999999999996,36.433
33.583,31.436999999999998,32.314,32.134,37.678000000000004,36.398
33.566,31.388,32.289,32.12,37.657,36.366
33.547,31.34,32.266,32.111999999999995,37.634,36.336999999999996
33.525999999999996,31.293000000000003,32.246,32.111999999999995,37.608000000000004,36.312
33.503,31.249000000000002,32.228,32.121,37.58,36.292
33.479,31.208000000000002,32.213,32.141,37.549,36.275999999999996
33.453,31.17,32.201,32.174,37.516,36.265
33.426,31.136999999999997,32.193000000000005,32.221,37.481,36.259
33.398,31.109,32.189,32.285,37.443000000000005,36.257
33.37,31.086,32.19,32.367,37.403,36.260999999999996
33.342,31.07,32.196,32.467,37.36,36.269
33.315,31.061999999999998,32.21,32.588,37.315,36.281
33.288000000000004,31.065,32.232,32.729,37.268,36.297
33.260999999999996,31.081,32.266,32.89,37.217,36.316
33.235,31.114,32.313,33.07,37.165,36.339
33.209,31.169,32.376999999999995,33.269,37.109,36.365
33.184,31.25,32.459,33.484,37.052,36.394
33.161,31.361,32.562,33.713,36.994,36.425
33.139,31.506999999999998,32.687,33.954,36.933,36.457
33.12,31.691,32.834,34.205,36.871,36.489000000000004
33.104,31.915,33.004,34.461,36.809,36.52
33.093,32.181,33.196999999999996,34.72,36.747,36.549
33.088,32.49,33.411,34.979,36.685,36.575
33.09,32.841,33.644,35.234,36.623000000000005,36.598
33.101,33.232,33.895,35.482,36.562,36.617
33.124,33.66,34.16,35.72,36.501,36.631
33.16,34.12,34.436,35.946999999999996,36.442,36.641
33.211999999999996,34.608000000000004,34.72,36.159,36.383,36.646
33.281,35.116,35.009,36.356,36.326,36.647
33.369,35.64,35.299,36.536,36.269,36.643
33.477,36.173,35.588,36.696999999999996,36.213,36.635999999999996
33.604,36.71,35.873000000000005,36.839,36.158,36.626
33.751999999999995,37.244,36.152,36.961999999999996,36.102,36.611999999999995
33.918,37.769,36.421,37.065,36.047,36.597
34.103,38.281,36.679,37.15,35.99,36.579
34.303000000000004,38.773,36.925,37.217,35.934,36.56
34.516,39.243,37.157,37.266999999999996,35.876999999999995,36.538000000000004
34.739000000000004,39.688,37.374,37.302,35.819,36.515
34.97,40.105,37.575,37.323,35.760999999999996,36.49
35.205,40.491,37.76,37.330999999999996,35.703,36.464
35.441,40.844,37.928000000000004,37.328,35.647,36.436
35.676,41.163999999999994,38.079,37.315,35.591,36.407
35.907,41.449,38.213,37.294000000000004,35.538000000000004,36.376
36.131,41.699,38.329,37.266,35.486999999999995,36.343
36.345,41.913999999999994,38.429,37.232,35.439,36.309
36.547,42.095,38.512,37.193000000000005,35.393,36.273
36.735,42.242,38.578,37.15,35.349000000000004,36.236
36.908,42.356,38.629,37.102,35.308,36.198
37.063,42.44,38.665,37.052,35.27,36.16
37.201,42.495,38.688,36.998000000000005,35.233000000000004,36.121
37.321,42.523,38.696999999999996,36.942,35.198,36.083
37.424,42.527,38.694,36.882,35.164,36.045
37.51,42.508,38.681,36.821,35.13,36.007
37.579,42.468999999999994,38.658,36.757,35.096,35.969
37.633,42.413000000000004,38.626,36.692,35.062,35.931
37.673,42.341,38.586999999999996,36.626,35.027,35.891999999999996
37.701,42.256,38.542,36.56,34.993,35.854
37.716,42.158,38.491,36.494,34.958,35.815
37.722,42.051,38.434,36.428000000000004,34.923,35.775
37.718,41.934,38.373000000000005,36.361,34.888000000000005,35.736
37.707,41.81,38.308,36.292,34.854,35.696999999999996
37.69,41.68,38.24,36.222,34.819,35.659
37.669000000000004,41.543,38.168,36.15,34.785,35.622
37.645,41.403,38.094,36.075,34.751999999999995,35.586999999999996
37.617,41.258,38.018,35.998000000000005,34.719,35.553000000000004
37.586999999999996,41.11,37.94,35.919000000000004,34.686,35.521
37.553000000000004,40.96,37.861,35.836999999999996,34.654,35.488
37.516999999999996,40.808,37.782,35.753,34.623000000000005,35.455
37.479,40.655,37.703,35.667,34.591,35.422
37.437,40.501999999999995,37.625,35.58,34.56,35.387
37.393,40.35,37.548,35.493,34.528,35.352
37.346,40.2,37.473,35.406,34.497,35.315
37.296,40.051,37.398,35.321999999999996,34.466,35.277
37.243,39.905,37.325,35.24,34.436,35.239000000000004
37.188,39.762,37.251999999999995,35.162,34.407,35.2
37.13,39.621,37.18,35.088,34.378,35.162
37.068000000000005,39.482,37.107,35.02,34.349000000000004,35.123000000000005
37.001999999999995,39.345,37.034,34.959,34.321,35.084
36.933,39.21,36.961,34.906,34.294000000000004,35.046
36.861,39.077,36.888000000000005,34.86,34.266999999999996,35.009
36.785,38.944,36.815,34.821999999999996,34.242,34.973
36.707,38.812,36.745,34.793,34.22,34.939
36.625,38.681,36.676,34.772,34.199,34.905
36.542,38.553000000000004,36.611,34.759,34.181,34.873000000000005
36.458,38.426,36.55,34.753,34.165,34.842
36.374,38.302,36.493,34.754,34.150999999999996,34.812
36.289,38.181999999999995,36.442,34.762,34.138000000000005,34.784
36.205,38.067,36.397,34.775999999999996,34.126,34.757
36.122,37.957,36.359,34.794000000000004,34.116,34.731
36.043,37.854,36.327,34.816,34.106,34.705999999999996
35.968,37.759,36.302,34.842,34.095,34.683
35.897,37.674,36.285,34.871,34.085,34.661
35.832,37.599000000000004,36.274,34.902,34.074,34.64
35.773,37.535,36.271,34.935,34.062,34.621
35.72,37.484,36.274,34.97,34.049,34.604
35.675,37.444,36.283,35.005,34.035,34.589
35.637,37.418,36.298,35.041,34.02,34.575
35.606,37.404,36.318000000000005,35.076,34.004,34.562
35.582,37.403,36.342,35.11,33.986,34.55
35.566,37.413000000000004,36.369,35.141999999999996,33.968,34.539
35.556,37.434,36.399,35.17,33.948,34.528
35.552,37.464,36.431,35.195,33.927,34.515
35.554,37.501,36.463,35.215,33.904,34.501999999999995
35.56,37.544000000000004,36.494,35.231,33.881,34.486
35.571,37.592,36.524,35.241,33.857,34.469
35.586999999999996,37.641999999999996,36.553000000000004,35.244,33.833,34.45
35.606,37.692,36.579,35.241,33.81,34.429
35.63,37.743,36.603,35.231,33.786,34.407
35.656,37.791,36.625,35.214,33.763000000000005,34.383
35.684,37.838,36.644,35.192,33.739000000000004,34.358000000000004
35.714,37.881,36.661,35.165,33.716,34.334
35.744,37.92,36.676,35.133,33.693000000000005,34.31
35.775,37.954,36.689,35.097,33.671,34.288000000000004
35.806,37.984,36.7,35.058,33.649,34.266999999999996
35.835,38.007,36.71,35.015,33.628,34.249
35.864000000000004,38.025999999999996,36.717,34.97,33.608000000000004,34.233000000000004
35.891,38.04,36.723,34.922,33.588,34.218
35.916,38.048,36.725,34.872,33.567,34.205
35.939,38.051,36.724000000000004,34.819,33.547,34.194
35.959,38.048,36.718,34.766,33.525999999999996,34.183
35.976,38.037,36.708,34.711,33.504,34.173
35.99,38.02,36.692,34.655,33.483000000000004,34.164
36.001,37.995,36.67,34.599000000000004,33.461,34.154
36.007,37.963,36.643,34.544000000000004,33.438,34.144
36.010999999999996,37.924,36.611,34.488,33.415,34.133
36.01,37.879,36.574,34.431999999999995,33.391999999999996,34.122
36.006,37.826,36.532,34.376999999999995,33.368,34.111
35.998000000000005,37.766,36.486,34.321,33.343,34.098
35.986,37.699,36.437,34.266,33.318000000000005,34.085
35.97,37.625,36.385999999999996,34.211,33.291,34.071
35.951,37.544000000000004,36.333,34.156,33.263000000000005,34.056
35.927,37.455999999999996,36.279,34.102,33.233000000000004,34.04
35.899,37.361999999999995,36.226,34.047,33.201,34.023
35.868,37.262,36.175,33.993,33.168,34.004
35.834,37.157,36.126,33.939,33.132,33.986
35.798,37.046,36.080999999999996,33.885999999999996,33.095,33.967
35.76,36.93,36.04,33.834,33.056,33.946999999999996
35.72,36.81,36.003,33.783,33.016,33.928000000000004
35.679,36.687,35.971,33.734,32.976,33.909
35.635,36.562,35.943000000000005,33.686,32.937,33.891
35.59,36.434,35.918,33.64,32.898,33.873000000000005
35.544000000000004,36.306,35.896,33.596,32.861,33.855
35.498000000000005,36.179,35.875,33.554,32.826,33.839
35.451,36.052,35.856,33.515,32.794000000000004,33.823
35.403,35.927,35.835,33.477,32.765,33.809
35.356,35.804,35.812,33.44,32.74,33.797
35.31,35.683,35.785,33.404,32.721,33.787
35.264,35.565,35.753,33.368,32.709,33.778
35.219,35.449,35.715,33.330999999999996,32.707,33.77
35.176,35.336999999999996,35.669000000000004,33.293,32.717,33.762
35.133,35.226,35.617,33.254,32.742,33.754
35.092,35.118,35.556,33.214,32.785,33.744
35.052,35.012,35.489000000000004,33.173,32.85,33.734
35.013000000000005,34.907,35.416,33.13,32.938,33.722
34.975,34.803000000000004,35.339,33.086,33.054,33.708
34.936,34.7,35.26,33.042,33.196999999999996,33.691
34.899,34.596,35.178000000000004,32.999,33.371,33.672
34.861,34.493,35.097,32.958,33.574,33.65
34.825,34.39,35.016999999999996,32.919000000000004,33.806999999999995,33.625
34.79,34.288000000000004,34.94,32.883,34.069,33.597
34.756,34.186,34.866,32.851,34.358000000000004,33.566
34.723,34.085,34.795,32.821999999999996,34.671,33.533
34.691,33.986999999999995,34.73,32.796,35.005,33.499
34.659,33.891,34.669000000000004,32.773,35.356,33.465
34.628,33.798,34.615,32.753,35.721,33.431999999999995
34.596,33.709,34.567,32.734,36.094,33.4
34.565,33.624,34.525999999999996,32.717,36.471,33.371
34.533,33.543,34.494,32.701,36.847,33.344
34.5,33.467,34.469,32.686,37.219,33.319
34.467,33.396,34.454,32.672,37.582,33.297
34.433,33.33,34.448,32.659,37.933,33.277
34.398,33.27,34.45,32.647,38.268,33.26
34.364000000000004,33.215,34.46,32.635,38.586999999999996,33.244
34.329,33.165,34.478,32.624,38.885,33.231
34.293,33.119,34.503,32.611999999999995,39.162,33.219
34.257,33.077,34.534,32.6,39.416,33.21
34.22,33.038000000000004,34.569,32.586999999999996,39.646,33.202
34.183,33.001,34.608000000000004,32.573,39.853,33.199
34.146,32.965,34.647,32.559,40.037,33.2
34.111,32.93,34.685,32.543,40.199,33.209
34.076,32.896,34.721,32.527,40.338,33.226
34.043,32.861999999999995,34.751999999999995,32.510999999999996,40.455,33.254
34.012,32.828,34.777,32.495,40.553000000000004,33.296
33.982,32.794000000000004,34.796,32.478,40.63,33.353
33.953,32.759,34.806999999999995,32.461,40.689,33.426
33.927,32.725,34.811,32.445,40.731,33.519
33.902,32.691,34.806999999999995,32.428000000000004,40.756,33.631
33.88,32.656,34.796,32.412,40.765,33.762
33.859,32.622,34.778,32.395,40.76,33.913000000000004
33.839,32.589,34.754,32.379,40.741,34.082
33.821,32.556999999999995,34.725,32.363,40.71,34.268
33.805,32.525999999999996,34.691,32.346,40.668,34.469
33.79,32.498000000000005,34.653,32.330999999999996,40.618,34.681999999999995
33.775999999999996,32.473,34.613,32.316,40.56,34.905
33.764,32.451,34.571999999999996,32.302,40.496,35.135
33.751,32.431999999999995,34.529,32.288000000000004,40.427,35.37
33.739000000000004,32.417,34.485,32.275,40.354,35.606
33.727,32.404,34.442,32.262,40.279,35.842
33.715,32.393,34.398,32.248000000000005,40.201,36.074
33.703,32.383,34.354,32.235,40.12,36.301
33.691,32.375,34.309,32.22,40.037,36.52
33.678000000000004,32.367,34.263000000000005,32.203,39.952,36.729
33.665,32.36,34.217,32.184,39.865,36.928000000000004
33.652,32.352,34.169000000000004,32.162,39.775999999999996,37.113
33.638000000000005,32.344,34.119,32.137,39.686,37.284
33.625,32.336,34.068000000000005,32.11,39.594,37.441
33.611,32.328,34.016,32.080999999999996,39.501999999999995,37.582
33.598,32.319,33.961999999999996,32.051,39.409,37.708
33.586,32.31,33.907,32.018,39.316,37.817
33.574,32.302,33.852,31.986,39.223,37.911
33.562,32.294000000000004,33.798,31.953000000000003,39.131,37.991
33.549,32.287,33.745,31.921999999999997,39.037,38.056999999999995
33.537,32.281,33.695,31.892,38.943000000000005,38.109
33.523,32.275999999999996,33.647,31.865,38.848,38.15
33.509,32.272,33.603,31.840999999999998,38.753,38.178000000000004
33.493,32.269,33.564,31.82,38.658,38.196
33.477,32.268,33.53,31.803,38.562,38.204
33.458,32.268,33.501999999999995,31.788,38.467,38.202
33.438,32.27,33.481,31.776999999999997,38.373000000000005,38.192
33.416,32.275,33.466,31.771,38.281,38.175
33.391999999999996,32.281,33.458,31.77,38.192,38.150999999999996
33.365,32.289,33.457,31.776999999999997,38.106,38.122
33.336999999999996,32.299,33.461,31.793000000000003,38.025,38.089
33.306,32.311,33.469,31.82,37.948,38.052
33.275,32.321999999999996,33.479,31.861,37.878,38.012
33.242,32.334,33.489000000000004,31.916999999999998,37.815,37.969
33.21,32.345,33.499,31.991999999999997,37.759,37.923
33.178000000000004,32.354,33.505,32.088,37.711,37.875
33.147,32.36,33.506,32.205999999999996,37.671,37.824
33.118,32.361,33.5,32.347,37.637,37.771
33.092,32.356,33.486999999999995,32.513000000000005,37.611,37.716
33.069,32.344,33.466,32.703,37.591,37.659
33.05,32.326,33.437,32.917,37.578,37.6
33.035,32.3,33.4,33.152,37.571,37.541
33.024,32.266,33.357,33.406,37.57,37.48
33.019,32.225,33.306999999999995,33.676,37.575,37.419000000000004
33.018,32.177,33.251999999999995,33.959,37.586999999999996,37.357
33.022,32.122,33.193000000000005,34.251,37.603,37.294000000000004
33.032,32.063,33.131,34.549,37.625,37.231
33.051,32.0,33.068000000000005,34.85,37.650999999999996,37.168
33.079,31.936,33.004,35.149,37.681999999999995,37.103
33.119,31.872,32.941,35.442,37.716,37.039
33.174,31.81,32.88,35.727,37.751,36.975
33.244,31.750999999999998,32.82,36.0,37.787,36.91
33.333,31.698,32.762,36.259,37.821999999999996,36.846
33.442,31.65,32.707,36.5,37.856,36.782
33.573,31.608,32.653,36.722,37.888000000000005,36.718
33.726,31.574,32.601,36.925,37.916,36.656
33.902,31.548000000000002,32.55,37.106,37.94,36.595
34.099000000000004,31.533,32.499,37.266999999999996,37.96,36.537
34.315,31.531,32.449,37.406,37.974000000000004,36.481
34.55,31.543000000000003,32.399,37.525999999999996,37.984,36.429
34.799,31.574,32.35,37.626999999999995,37.988,36.38
35.061,31.627,32.303000000000004,37.711999999999996,37.986999999999995,36.336
35.330999999999996,31.705,32.257,37.781,37.981,36.297
35.605,31.811,32.214,37.836,37.972,36.263000000000005
35.88,31.947,32.174,37.878,37.958,36.236
36.153,32.115,32.138000000000005,37.908,37.94,36.214
36.419000000000004,32.317,32.104,37.928000000000004,37.918,36.199
36.677,32.552,32.074,37.938,37.893,36.19
36.923,32.821,32.047,37.94,37.864000000000004,36.187
37.154,33.121,32.024,37.934,37.832,36.191
37.371,33.451,32.004,37.921,37.796,36.201
37.57,33.806999999999995,31.988000000000003,37.902,37.756,36.216
37.751999999999995,34.184,31.976999999999997,37.878,37.711999999999996,36.236999999999995
37.916,34.578,31.969,37.851,37.664,36.262
38.062,34.984,31.965999999999998,37.819,37.611999999999995,36.291
38.189,35.396,31.969,37.785,37.556999999999995,36.321999999999996
38.3,35.808,31.976999999999997,37.748000000000005,37.498000000000005,36.356
38.394,36.216,31.991999999999997,37.707,37.437,36.39
38.474000000000004,36.614000000000004,32.015,37.665,37.374,36.423
38.539,37.0,32.047,37.619,37.308,36.455
38.591,37.369,32.09,37.571,37.241,36.485
38.632,37.716,32.145,37.52,37.172,36.510999999999996
38.662,38.04,32.214,37.469,37.102,36.534
38.681999999999995,38.336,32.3,37.415,37.031,36.553000000000004
38.692,38.604,32.405,37.361,36.96,36.569
38.694,38.842,32.529,37.305,36.888000000000005,36.582
38.689,39.05,32.674,37.248000000000005,36.817,36.592
38.677,39.228,32.842,37.191,36.747,36.599000000000004
38.66,39.376,33.033,37.134,36.678000000000004,36.604
38.635999999999996,39.495,33.247,37.077,36.61,36.607
38.608000000000004,39.588,33.482,37.02,36.544000000000004,36.607
38.575,39.655,33.736,36.961999999999996,36.481,36.604
38.538000000000004,39.698,34.007,36.903,36.419000000000004,36.598
38.497,39.72,34.291,36.843,36.358000000000004,36.589
38.454,39.722,34.586,36.781,36.299,36.578
38.408,39.708,34.888000000000005,36.718,36.24,36.564
38.36,39.677,35.194,36.654,36.181999999999995,36.548
38.31,39.633,35.5,36.59,36.124,36.529
38.26,39.577,35.804,36.525,36.067,36.509
38.209,39.51,36.103,36.46,36.01,36.486999999999995
38.157,39.433,36.394,36.396,35.952,36.464
38.104,39.349000000000004,36.676,36.332,35.893,36.439
38.05,39.256,36.945,36.27,35.833,36.413000000000004
37.995,39.157,37.202,36.21,35.771,36.384
37.94,39.05,37.444,36.152,35.707,36.354
37.885,38.937,37.671,36.097,35.641999999999996,36.321
37.828,38.816,37.88,36.045,35.576,36.287
37.769,38.689,38.07,35.998000000000005,35.51,36.251999999999995
37.709,38.556999999999995,38.242,35.957,35.444,36.215
37.646,38.42,38.394,35.921,35.381,36.178000000000004
37.580999999999996,38.279,38.525,35.891,35.319,36.14
37.513000000000005,38.135,38.635,35.868,35.26,36.102
37.441,37.988,38.724000000000004,35.851,35.204,36.065
37.367,37.841,38.792,35.842,35.150999999999996,36.027
37.292,37.692,38.84,35.839,35.101,35.989000000000004
37.217,37.544000000000004,38.869,35.842,35.055,35.952
37.141,37.397,38.878,35.85,35.012,35.915
37.068000000000005,37.25,38.869,35.864000000000004,34.971,35.878
36.997,37.105,38.843,35.88,34.933,35.842
36.931,36.961,38.802,35.9,34.897,35.805
36.87,36.819,38.746,35.922,34.863,35.769
36.814,36.678000000000004,38.677,35.946,34.83,35.732
36.766,36.538000000000004,38.597,35.971,34.797,35.696
36.725,36.399,38.508,35.996,34.764,35.659
36.692,36.263000000000005,38.411,36.021,34.73,35.622
36.668,36.128,38.308,36.045,34.696999999999996,35.585
36.653,35.995,38.2,36.066,34.663000000000004,35.547
36.646,35.867,38.09,36.085,34.63,35.508
36.647,35.742,37.978,36.1,34.596,35.468
36.654,35.623000000000005,37.867,36.111,34.562,35.429
36.667,35.51,37.757,36.118,34.529,35.389
36.684,35.404,37.650999999999996,36.119,34.496,35.35
36.705,35.306999999999995,37.55,36.116,34.465,35.311
36.729,35.22,37.453,36.106,34.436,35.273
36.756,35.144,37.363,36.09,34.408,35.236
36.783,35.080999999999996,37.278,36.069,34.383,35.2
36.812,35.031,37.2,36.041,34.359,35.166
36.841,34.995,37.126999999999995,36.008,34.336,35.132
36.869,34.974000000000004,37.06,35.97,34.314,35.1
36.896,34.967,36.997,35.927,34.293,35.069
36.921,34.975,36.939,35.88,34.273,35.038000000000004
36.944,34.996,36.883,35.829,34.254,35.008
36.965,35.029,36.83,35.775,34.234,34.978
36.984,35.074,36.778,35.717,34.215,34.948
37.0,35.128,36.726,35.657,34.196,34.919000000000004
37.012,35.191,36.675,35.595,34.176,34.89
37.021,35.259,36.625,35.532,34.156,34.861999999999995
37.027,35.333,36.576,35.47,34.135,34.835
37.03,35.408,36.529,35.409,34.114000000000004,34.809
37.029,35.485,36.485,35.349000000000004,34.093,34.784
37.024,35.561,36.443000000000005,35.29,34.071,34.76
37.016,35.634,36.405,35.233000000000004,34.05,34.736999999999995
37.003,35.704,36.371,35.177,34.03,34.714
36.986999999999995,35.769,36.342,35.122,34.010999999999996,34.692
36.968,35.828,36.318000000000005,35.069,33.994,34.669000000000004
36.944,35.879,36.299,35.016,33.978,34.646
36.916,35.921,36.285,34.963,33.964,34.621
36.885,35.954,36.275999999999996,34.911,33.952,34.596
36.85,35.977,36.272,34.859,33.94,34.569
36.812,35.989000000000004,36.27,34.808,33.93,34.542
36.771,35.992,36.272,34.756,33.92,34.513000000000005
36.726,35.986999999999995,36.275,34.703,33.909,34.485
36.678000000000004,35.973,36.279,34.650999999999996,33.898,34.455999999999996
36.628,35.952,36.283,34.6,33.885999999999996,34.427
36.575,35.925,36.286,34.548,33.873000000000005,34.398
36.52,35.893,36.287,34.497,33.858000000000004,34.37
36.463,35.855,36.287,34.448,33.843,34.342
36.405,35.813,36.283,34.399,33.827,34.314
36.346,35.766999999999996,36.277,34.352,33.81,34.287
36.288000000000004,35.718,36.269,34.306,33.792,34.260999999999996
36.23,35.665,36.257,34.262,33.772,34.236
36.173,35.609,36.244,34.219,33.75,34.211999999999996
36.116,35.549,36.23,34.178000000000004,33.727,34.189
36.061,35.485,36.215,34.138000000000005,33.702,34.168
36.006,35.417,36.201,34.099000000000004,33.676,34.147
35.952,35.343,36.187,34.06,33.65,34.128
35.9,35.265,36.176,34.022,33.624,34.11
35.85,35.181,36.167,33.985,33.597,34.094
35.802,35.092,36.16,33.946999999999996,33.571,34.079
35.755,34.998000000000005,36.157,33.909,33.544000000000004,34.065
35.709,34.899,36.156,33.871,33.516,34.052
35.665,34.795,36.158,33.833,33.486999999999995,34.04
35.621,34.687,36.163000000000004,33.795,33.457,34.028
35.579,34.574,36.169000000000004,33.758,33.427,34.015
35.535,34.457,36.176,33.722,33.396,34.001999999999995
35.492,34.338,36.184,33.688,33.365,33.989000000000004
35.446999999999996,34.217,36.19,33.656,33.333,33.976
35.402,34.096,36.194,33.624,33.3,33.963
35.356,33.976,36.196,33.595,33.266,33.95
35.309,33.859,36.195,33.567,33.23,33.937
35.262,33.747,36.19,33.541,33.194,33.924
35.214,33.641,36.181,33.518,33.158,33.911
35.166,33.541,36.168,33.497,33.122,33.899
35.119,33.448,36.152,33.479,33.086999999999996,33.885999999999996
35.071,33.363,36.133,33.463,33.054,33.874
35.025,33.284,36.111999999999995,33.449,33.022,33.861999999999995
34.98,33.213,36.089,33.437,32.993,33.851
34.936,33.148,36.067,33.425,32.967,33.84
34.893,33.089,36.044000000000004,33.413000000000004,32.945,33.829
34.852,33.034,36.022,33.402,32.928000000000004,33.818000000000005
34.813,32.983000000000004,36.0,33.389,32.917,33.806
34.777,32.934,35.98,33.375,32.913000000000004,33.793
34.742,32.887,35.96,33.36,32.918,33.779
34.71,32.84,35.942,33.343,32.934,33.763000000000005
34.68,32.791,35.924,33.325,32.963,33.744
34.652,32.74,35.907,33.306,33.008,33.723
34.626999999999995,32.687,35.889,33.287,33.071999999999996,33.698
34.603,32.63,35.872,33.266999999999996,33.157,33.671
34.582,32.571999999999996,35.855,33.247,33.265,33.64
34.562,32.512,35.838,33.227,33.399,33.606
34.544000000000004,32.451,35.823,33.205999999999996,33.558,33.57
34.527,32.391,35.809,33.184,33.744,33.534
34.51,32.332,35.796,33.162,33.955999999999996,33.499
34.495,32.275999999999996,35.784,33.141,34.193000000000005,33.465
34.48,32.225,35.773,33.119,34.453,33.435
34.466,32.179,35.762,33.098,34.733000000000004,33.408
34.451,32.14,35.75,33.076,35.031,33.385999999999996
34.438,32.108000000000004,35.736999999999995,33.054,35.344,33.369
34.424,32.085,35.721,33.031,35.667,33.357
34.411,32.071,35.702,33.008,35.997,33.35
34.398,32.065,35.679,32.984,36.330999999999996,33.349000000000004
34.385,32.067,35.650999999999996,32.96,36.665,33.353
34.371,32.076,35.618,32.936,36.995,33.365
34.358000000000004,32.092,35.579,32.912,37.318000000000005,33.385
34.343,32.114000000000004,35.534,32.889,37.631,33.414
34.328,32.139,35.484,32.867,37.93,33.455
34.312,32.167,35.429,32.847,38.213,33.509
34.295,32.196,35.37,32.829,38.477,33.579
34.277,32.224000000000004,35.306,32.811,38.721,33.666
34.257,32.249,35.238,32.794000000000004,38.944,33.77
34.236999999999995,32.27,35.168,32.778,39.144,33.893
34.216,32.285,35.094,32.760999999999996,39.321999999999996,34.035
34.195,32.294000000000004,35.018,32.743,39.478,34.195
34.174,32.297,34.94,32.723,39.611999999999995,34.371
34.153,32.293,34.86,32.703,39.726,34.563
34.133,32.282,34.78,32.681999999999995,39.82,34.768
34.113,32.266,34.7,32.66,39.896,34.984
34.095,32.243,34.62,32.64,39.953,35.207
34.077,32.216,34.542,32.619,39.994,35.436
34.059,32.186,34.467,32.599000000000004,40.018,35.666
34.042,32.152,34.394,32.58,40.028,35.896
34.025999999999996,32.117,34.326,32.562,40.025,36.122
34.009,32.082,34.260999999999996,32.543,40.009,36.341
33.992,32.047,34.199,32.525,39.982,36.552
33.974000000000004,32.012,34.141999999999996,32.506,39.944,36.751999999999995
33.955999999999996,31.98,34.088,32.486,39.897,36.94
33.937,31.949,34.037,32.465,39.841,37.114000000000004
33.916,31.919,33.991,32.442,39.775999999999996,37.275
33.895,31.89,33.949,32.418,39.704,37.42
33.871,31.859,33.911,32.391,39.623000000000005,37.552
33.846,31.826999999999998,33.878,32.363,39.534,37.67
33.82,31.791999999999998,33.85,32.332,39.44,37.774
33.791,31.754,33.826,32.299,39.339,37.865
33.762,31.713,33.808,32.263000000000005,39.234,37.943000000000005
33.732,31.666999999999998,33.793,32.224000000000004,39.126,38.009
33.701,31.616999999999997,33.783,32.184,39.015,38.063
33.671,31.561999999999998,33.775999999999996,32.141,38.904,38.105
33.641,31.502,33.771,32.097,38.792,38.137
33.613,31.436999999999998,33.768,32.055,38.681,38.16
33.586999999999996,31.369,33.765,32.014,38.571,38.174
33.564,31.296999999999997,33.762,31.976,38.463,38.179
33.544000000000004,31.224,33.759,31.943,38.356,38.178000000000004
33.528,31.151,33.755,31.914,38.25,38.171
33.516,31.08,33.751,31.89,38.143,38.158
33.510999999999996,31.014,33.746,31.874000000000002,38.036,38.138000000000005
33.512,30.953000000000003,33.74,31.863000000000003,37.928000000000004,38.111999999999995
33.521,30.899,33.734,31.86,37.819,38.079
33.541,30.851999999999997,33.728,31.864,37.708,38.04
33.571999999999996,30.811,33.72,31.875,37.597,37.996
33.618,30.776999999999997,33.711999999999996,31.894000000000002,37.485,37.946
33.681,30.748,33.702,31.921999999999997,37.374,37.891999999999996
33.763000000000005,30.724,33.689,31.961,37.264,37.835
33.866,30.703000000000003,33.674,32.010999999999996,37.157,37.775
33.992,30.685,33.654,32.076,37.054,37.713
34.141,30.668000000000003,33.63,32.157,36.957,37.65
34.313,30.651999999999997,33.601,32.255,36.867,37.586
34.507,30.636999999999997,33.567,32.374,36.785,37.523
34.722,30.623,33.525999999999996,32.514,36.711,37.459
34.955999999999996,30.609,33.478,32.676,36.647,37.396
35.207,30.595,33.424,32.861999999999995,36.593,37.334
35.472,30.581999999999997,33.364000000000004,33.07,36.548,37.273
35.747,30.57,33.299,33.299,36.513000000000005,37.214
36.029,30.559,33.228,33.549,36.489000000000004,37.154
36.313,30.55,33.155,33.816,36.473,37.096
36.598,30.544,33.079,34.097,36.467,37.038000000000004
36.876999999999995,30.543000000000003,33.003,34.389,36.47,36.98
37.148,30.549,32.928000000000004,34.689,36.481,36.922
37.409,30.566,32.855,34.992,36.5,36.864000000000004
37.657,30.596999999999998,32.786,35.294000000000004,36.525,36.805
37.889,30.645,32.72,35.594,36.556,36.746
38.104,30.715,32.66,35.887,36.59,36.686
38.301,30.81,32.605,36.171,36.628,36.626
38.479,30.933000000000003,32.555,36.443000000000005,36.668,36.567
38.637,31.086,32.51,36.701,36.709,36.509
38.775999999999996,31.271,32.47,36.943000000000005,36.751999999999995,36.453
38.895,31.487,32.433,37.167,36.794000000000004,36.4
38.996,31.735,32.4,37.373000000000005,36.836999999999996,36.349000000000004
39.078,32.013000000000005,32.37,37.56,36.878,36.302
39.143,32.319,32.343,37.727,36.917,36.26
39.193000000000005,32.649,32.319,37.875,36.952,36.223
39.229,33.0,32.298,38.004,36.985,36.192
39.251999999999995,33.367,32.28,38.114000000000004,37.013000000000005,36.168
39.265,33.747,32.266,38.204,37.038000000000004,36.150999999999996
39.268,34.132,32.254,38.275999999999996,37.058,36.141999999999996
39.264,34.519,32.244,38.329,37.074,36.139
39.254,34.903,32.236999999999995,38.365,37.084,36.143
39.238,35.279,32.23,38.385999999999996,37.09,36.153
39.218,35.645,32.225,38.393,37.09,36.169000000000004
39.193000000000005,35.997,32.219,38.389,37.084,36.189
39.163000000000004,36.332,32.213,38.374,37.073,36.213
39.129,36.648,32.205999999999996,38.35,37.056,36.239000000000004
39.091,36.944,32.196999999999996,38.319,37.034,36.266999999999996
39.048,37.22,32.187,38.282,37.007,36.294000000000004
39.001,37.475,32.175,38.24,36.975,36.321
38.951,37.707,32.162,38.195,36.939,36.347
38.897,37.917,32.148,38.146,36.898,36.372
38.84,38.104,32.133,38.095,36.855,36.395
38.78,38.268,32.117,38.044000000000004,36.808,36.416
38.718,38.409,32.101,37.992,36.76,36.435
38.655,38.527,32.084,37.94,36.709,36.453
38.591,38.622,32.067,37.89,36.657,36.47
38.525999999999996,38.696,32.051,37.84,36.604,36.484
38.461,38.748000000000005,32.035,37.791,36.551,36.495
38.395,38.78,32.02,37.743,36.498000000000005,36.503
38.329,38.793,32.006,37.696,36.444,36.508
38.260999999999996,38.788000000000004,31.993000000000002,37.652,36.391,36.51
38.192,38.766,31.980999999999998,37.609,36.339,36.509
38.122,38.73,31.971,37.567,36.286,36.505
38.051,38.68,31.962,37.527,36.232,36.498000000000005
37.979,38.62,31.956999999999997,37.486999999999995,36.179,36.488
37.905,38.551,31.956999999999997,37.446,36.125,36.475
37.83,38.477,31.963,37.405,36.07,36.46
37.754,38.398,31.976999999999997,37.361999999999995,36.015,36.442
37.676,38.316,32.003,37.318000000000005,35.958,36.422
37.598,38.233000000000004,32.043,37.274,35.900999999999996,36.400999999999996
37.52,38.149,32.097,37.227,35.842,36.376999999999995
37.443000000000005,38.065,32.168,37.179,35.783,36.35
37.369,37.98,32.257,37.13,35.723,36.321
37.298,37.895,32.364000000000004,37.078,35.662,36.29
37.232,37.81,32.488,37.025,35.6,36.256
37.17,37.724000000000004,32.63,36.971,35.539,36.22
37.115,37.638000000000005,32.787,36.916,35.476,36.181
37.067,37.552,32.958,36.86,35.414,36.141
37.025,37.465,33.141,36.804,35.351,36.1
36.991,37.378,33.333,36.748000000000005,35.287,36.058
36.965,37.29,33.533,36.691,35.224000000000004,36.016
36.948,37.202,33.738,36.634,35.159,35.975
36.938,37.115,33.944,36.577,35.094,35.936
36.936,37.027,34.149,36.521,35.029,35.898
36.941,36.939,34.351,36.467,34.965,35.864000000000004
36.952,36.85,34.548,36.415,34.900999999999996,35.832
36.968,36.76,34.736999999999995,36.367,34.84,35.802
36.988,36.668,34.916,36.324,34.781,35.774
37.013000000000005,36.575,35.085,36.286,34.725,35.747
37.04,36.481,35.242,36.255,34.673,35.721
37.068000000000005,36.385,35.385999999999996,36.23,34.623000000000005,35.694
37.098,36.289,35.516,36.211,34.577,35.665
37.128,36.193000000000005,35.631,36.199,34.533,35.635
37.157,36.098,35.73,36.193000000000005,34.493,35.603
37.183,36.004,35.814,36.193000000000005,34.455,35.569
37.207,35.912,35.884,36.196999999999996,34.418,35.532
37.226,35.823,35.939,36.205,34.383,35.494
37.241,35.736999999999995,35.981,36.216,34.35,35.453
37.251999999999995,35.657,36.010999999999996,36.228,34.317,35.411
37.257,35.580999999999996,36.029,36.24,34.285,35.368
37.256,35.510999999999996,36.037,36.25,34.253,35.324
37.25,35.448,36.034,36.258,34.221,35.28
37.239000000000004,35.391,36.021,36.264,34.189,35.235
37.223,35.34,36.0,36.266,34.156,35.191
37.203,35.296,35.971,36.263000000000005,34.123000000000005,35.147
37.179,35.259,35.935,36.256,34.088,35.105
37.152,35.228,35.891999999999996,36.245,34.053000000000004,35.063
37.122,35.205,35.844,36.229,34.016999999999996,35.023
37.089,35.189,35.79,36.208,33.981,34.983000000000004
37.055,35.181,35.733000000000004,36.184,33.944,34.946
37.016999999999996,35.179,35.672,36.156,33.908,34.91
36.978,35.183,35.607,36.128,33.872,34.876
36.936,35.193000000000005,35.54,36.098,33.836,34.844
36.893,35.208,35.471,36.07,33.8,34.815
36.847,35.226,35.4,36.042,33.765,34.787
36.8,35.247,35.328,36.018,33.73,34.76
36.75,35.27,35.255,35.997,33.695,34.735
36.698,35.295,35.181999999999995,35.98,33.66,34.71
36.644,35.321999999999996,35.108000000000004,35.967,33.626,34.685
36.589,35.349000000000004,35.035,35.959,33.593,34.661
36.531,35.376,34.963,35.953,33.559,34.637
36.473,35.403,34.891,35.952,33.527,34.613
36.413000000000004,35.429,34.82,35.953,33.495,34.59
36.351,35.455,34.75,35.955999999999996,33.465,34.567
36.289,35.478,34.681,35.959,33.435,34.545
36.227,35.5,34.614000000000004,35.961999999999996,33.407,34.524
36.164,35.521,34.549,35.961999999999996,33.38,34.503
36.101,35.54,34.486999999999995,35.959,33.355,34.482
36.038000000000004,35.556999999999995,34.427,35.951,33.332,34.461
35.975,35.571,34.37,35.936,33.311,34.44
35.914,35.583,34.316,35.916,33.293,34.419000000000004
35.854,35.591,34.266999999999996,35.889,33.277,34.398
35.796,35.595,34.222,35.855,33.263000000000005,34.376
35.739000000000004,35.593,34.181,35.815,33.251,34.353
35.684,35.586,34.146,35.77,33.242,34.329
35.63,35.571999999999996,34.115,35.719,33.234,34.304
35.577,35.552,34.09,35.665,33.227,34.279
35.525,35.524,34.071,35.606,33.221,34.254
35.474000000000004,35.488,34.058,35.546,33.215,34.23
35.424,35.445,34.052,35.483000000000004,33.209,34.205
35.376,35.393,34.052,35.42,33.202,34.181
35.328,35.334,34.06,35.356,33.193000000000005,34.158
35.282,35.266999999999996,34.074,35.292,33.181,34.135
35.236999999999995,35.194,34.096,35.228,33.167,34.113
35.192,35.116,34.125,35.164,33.148,34.092
35.149,35.033,34.16,35.101,33.126,34.073
35.107,34.948,34.2,35.039,33.1,34.056
35.065,34.861,34.245,34.978,33.07,34.04
35.025,34.773,34.294000000000004,34.92,33.037,34.027
34.985,34.686,34.346,34.863,33.001999999999995,34.015
34.946,34.6,34.400999999999996,34.806999999999995,32.965,34.004
34.908,34.516999999999996,34.459,34.754,32.929,33.993
34.871,34.437,34.518,34.702,32.894,33.983000000000004
34.834,34.361,34.58,34.652,32.86,33.973
34.798,34.288000000000004,34.644,34.603,32.828,33.964
34.762,34.219,34.708,34.556999999999995,32.799,33.954
34.727,34.152,34.774,34.513000000000005,32.773,33.945
34.693000000000005,34.088,34.84,34.471,32.749,33.935
34.659,34.025,34.906,34.431,32.727,33.925
34.626999999999995,33.963,34.971,34.391999999999996,32.705999999999996,33.914
34.596,33.903,35.034,34.354,32.687,33.902
34.567,33.844,35.095,34.316,32.668,33.889
34.54,33.787,35.153,34.278,32.649,33.875
34.515,33.732,35.209,34.24,32.63,33.86
34.492,33.679,35.260999999999996,34.201,32.61,33.845
34.471,33.629,35.311,34.161,32.59,33.829
34.453,33.580999999999996,35.356,34.121,32.57,33.814
34.436,33.536,35.398,34.079,32.55,33.798
34.421,33.492,35.437,34.036,32.53,33.783
34.406,33.449,35.471,33.993,32.512,33.769
34.391999999999996,33.407,35.5,33.949,32.495,33.755
34.378,33.365,35.525,33.904,32.48,33.742
34.361999999999995,33.323,35.545,33.859,32.466,33.728
34.346,33.281,35.559,33.813,32.455999999999996,33.714
34.329,33.238,35.567,33.766,32.449,33.698
34.309,33.194,35.57,33.718,32.446999999999996,33.681999999999995
34.289,33.149,35.566,33.67,32.452,33.663000000000004
34.266999999999996,33.104,35.556,33.622,32.466,33.641999999999996
34.244,33.059,35.537,33.575,32.493,33.62
34.219,33.014,35.510999999999996,33.53,32.537,33.596
34.194,32.968,35.477,33.486,32.601,33.57
34.167,32.922,35.433,33.443000000000005,32.688,33.544000000000004
34.139,32.875,35.38,33.400999999999996,32.802,33.516
34.111,32.827,35.316,33.36,32.945,33.488
34.082,32.778,35.242,33.321,33.118,33.46
34.053000000000004,32.73,35.157,33.282,33.324,33.431999999999995
34.023,32.681999999999995,35.061,33.244,33.562,33.404
33.992,32.634,34.954,33.205,33.830999999999996,33.376
33.961,32.586999999999996,34.838,33.164,34.129,33.349000000000004
33.93,32.541,34.711999999999996,33.123000000000005,34.455999999999996,33.324
33.899,32.495,34.58,33.078,34.806,33.301
33.868,32.449,34.442,33.031,35.177,33.281
33.836999999999996,32.403,34.303000000000004,32.98,35.565,33.264
33.805,32.358000000000004,34.165,32.925,35.965,33.251
33.773,32.312,34.032,32.866,36.374,33.244
33.739000000000004,32.268,33.906,32.803000000000004,36.787,33.244
33.705,32.223,33.791,32.736999999999995,37.199,33.253
33.67,32.178000000000004,33.688,32.667,37.607,33.273
33.634,32.133,33.6,32.593,38.006,33.305
33.598,32.086999999999996,33.525999999999996,32.518,38.393,33.351
33.562,32.041,33.466,32.441,38.766,33.414
33.525999999999996,31.994,33.42,32.364000000000004,39.122,33.496
33.492,31.948,33.385999999999996,32.289,39.458,33.596
33.458,31.901,33.363,32.216,39.772,33.717
33.426,31.854,33.348,32.146,40.064,33.859
33.394,31.808000000000003,33.339,32.080999999999996,40.330999999999996,34.021
33.363,31.763,33.336,32.022,40.574,34.202
33.333,31.718000000000004,33.336,31.969,40.791,34.4
33.305,31.673000000000002,33.336999999999996,31.923000000000002,40.982,34.615
33.279,31.627,33.338,31.884,41.147,34.843
33.256,31.581,33.338,31.851999999999997,41.285,35.083
33.235,31.535,33.335,31.828000000000003,41.398,35.330999999999996
33.218,31.487,33.33,31.811999999999998,41.486999999999995,35.585
33.207,31.438000000000002,33.32,31.802,41.553000000000004,35.843
33.202,31.39,33.306999999999995,31.799,41.597,36.1
33.205999999999996,31.340999999999998,33.291,31.8,41.622,36.357
33.221,31.294,33.271,31.805,41.629,36.609
33.248000000000005,31.249000000000002,33.249,31.814,41.619,36.856
33.29,31.206999999999997,33.225,31.824,41.595,37.094
33.348,31.169,33.2,31.835,41.556999999999995,37.323
33.425,31.136,33.175,31.845,41.507,37.539
33.523,31.108,33.15,31.855,41.446000000000005,37.742
33.641999999999996,31.086,33.126,31.863000000000003,41.376999999999995,37.929
33.783,31.068,33.104,31.871,41.299,38.101
33.945,31.054000000000002,33.084,31.875999999999998,41.215,38.256
34.126999999999995,31.043000000000003,33.065,31.881,41.125,38.395
34.327,31.034000000000002,33.049,31.884,41.032,38.516
34.544000000000004,31.026999999999997,33.034,31.886,40.935,38.622
34.774,31.02,33.021,31.888,40.836,38.711999999999996
35.016,31.011999999999997,33.009,31.892,40.735,38.788000000000004
35.265,31.005,32.999,31.898000000000003,40.634,38.85
35.519,30.997,32.989000000000004,31.906999999999996,40.534,38.899
35.775,30.987,32.981,31.92,40.435,38.935
36.028,30.976,32.974000000000004,31.936999999999998,40.338,38.961
36.275999999999996,30.964000000000002,32.968,31.959,40.245,38.977
36.516,30.949,32.963,31.986,40.154,38.983000000000004
36.744,30.932,32.96,32.016,40.066,38.982
36.958,30.913,32.958,32.051,39.98,38.973
37.156,30.893,32.957,32.088,39.895,38.958
37.336,30.871,32.957,32.126999999999995,39.81,38.938
37.497,30.849,32.958,32.167,39.726,38.913000000000004
37.637,30.826999999999998,32.961,32.207,39.641,38.884
37.757,30.805999999999997,32.965,32.245,39.554,38.851
37.857,30.787,32.972,32.28,39.467,38.814
37.937,30.77,32.981,32.313,39.376999999999995,38.774
37.998000000000005,30.756,32.993,32.341,39.286,38.731
38.04,30.746,33.009,32.365,39.193000000000005,38.684
38.064,30.741,33.028,32.384,39.098,38.635
38.071,30.744,33.052,32.397,39.001,38.582
38.064,30.756999999999998,33.080999999999996,32.404,38.903,38.528
38.044000000000004,30.783,33.115,32.406,38.805,38.47
38.013000000000005,30.825,33.154,32.403,38.705999999999996,38.411
37.972,30.888,33.199,32.395,38.608000000000004,38.349000000000004
37.925,30.975,33.249,32.384,38.510999999999996,38.286
37.874,31.088,33.304,32.37,38.418,38.222
37.819,31.229,33.365,32.353,38.328,38.157
37.762,31.4,33.429,32.335,38.243,38.093
37.705,31.6,33.498000000000005,32.317,38.163000000000004,38.028
37.648,31.828000000000003,33.57,32.299,38.091,37.964
37.591,32.082,33.644,32.282,38.025999999999996,37.899
37.534,32.358000000000004,33.717,32.266,37.971,37.834
37.478,32.654,33.788000000000004,32.251999999999995,37.925,37.766999999999996
37.421,32.966,33.854,32.239000000000004,37.889,37.699
37.365,33.287,33.914,32.229,37.861999999999995,37.63
37.309,33.613,33.965,32.221,37.845,37.558
37.251999999999995,33.94,34.008,32.215,37.836,37.486999999999995
37.196,34.262,34.041,32.211,37.836999999999996,37.415
37.14,34.575,34.066,32.209,37.845,37.344
37.084,34.876,34.083,32.211,37.86,37.275
37.025999999999996,35.161,34.093,32.217,37.881,37.21
36.968,35.429,34.098,32.228,37.906,37.149
36.909,35.677,34.098,32.246,37.935,37.093
36.848,35.905,34.097,32.274,37.968,37.044000000000004
36.786,36.111999999999995,34.094,32.313,38.001999999999995,37.003
36.723,36.299,34.091,32.366,38.037,36.969
36.659,36.466,34.091,32.435,38.071999999999996,36.944
36.592,36.611999999999995,34.095,32.522,38.105,36.928000000000004
36.523,36.741,34.104,32.63,38.135999999999996,36.922
36.452,36.852,34.122,32.76,38.164,36.925
36.379,36.946,34.149,32.914,38.188,36.938
36.305,37.027,34.187,33.091,38.208,36.96
36.23,37.093,34.236999999999995,33.292,38.223,36.99
36.155,37.146,34.299,33.513000000000005,38.234,37.028
36.082,37.187,34.373000000000005,33.755,38.24,37.071
36.013000000000005,37.216,34.459,34.012,38.242,37.119
35.949,37.234,34.556999999999995,34.283,38.238,37.17
35.891999999999996,37.241,34.664,34.564,38.23,37.221
35.844,37.236999999999995,34.779,34.85,38.218,37.272
35.805,37.224000000000004,34.9,35.14,38.202,37.321
35.775999999999996,37.203,35.023,35.429,38.183,37.367
35.759,37.173,35.146,35.714,38.16,37.408
35.751999999999995,37.135999999999996,35.266999999999996,35.992,38.134,37.446
35.756,37.092,35.381,36.26,38.104,37.477
35.77,37.045,35.488,36.514,38.071,37.504
35.791,36.994,35.583,36.753,38.033,37.525
35.819,36.941,35.667,36.973,37.991,37.541
35.852,36.887,35.736999999999995,37.175,37.943000000000005,37.552
35.887,36.832,35.793,37.355,37.89,37.559
35.923,36.778,35.835,37.515,37.830999999999996,37.563
35.959,36.724000000000004,35.863,37.653,37.766999999999996,37.564
35.992,36.67,35.876,37.769,37.696999999999996,37.562
36.022,36.617,35.875,37.864000000000004,37.621,37.559
36.048,36.563,35.861999999999995,37.937,37.541,37.553000000000004
36.071,36.51,35.835,37.991,37.457,37.547
36.091,36.455999999999996,35.798,38.027,37.369,37.54
36.109,36.400999999999996,35.75,38.045,37.28,37.532
36.125,36.345,35.693000000000005,38.049,37.188,37.522
36.14,36.288000000000004,35.63,38.04,37.096,37.510999999999996
36.153,36.229,35.561,38.02,37.004,37.499
36.166,36.168,35.489000000000004,37.99,36.912,37.483000000000004
36.177,36.105,35.416,37.954,36.821999999999996,37.465
36.185,36.039,35.344,37.913000000000004,36.733000000000004,37.442
36.19,35.971,35.274,37.869,36.646,37.415
36.19,35.899,35.208,37.821999999999996,36.56,37.382
36.186,35.825,35.146,37.773,36.476,37.344
36.177,35.748000000000005,35.088,37.725,36.394,37.301
36.162,35.67,35.035,37.678000000000004,36.313,37.251999999999995
36.14,35.591,34.985,37.633,36.233000000000004,37.2
36.111999999999995,35.512,34.939,37.59,36.153,37.144
36.077,35.435,34.895,37.549,36.074,37.086999999999996
36.036,35.361,34.852,37.512,35.994,37.029
35.989000000000004,35.291,34.81,37.478,35.914,36.971
35.935,35.227,34.768,37.446999999999996,35.833,36.914
35.876,35.168,34.726,37.42,35.751999999999995,36.857
35.81,35.115,34.681999999999995,37.396,35.671,36.801
35.738,35.07,34.637,37.374,35.592,36.746
35.661,35.032,34.591,37.354,35.513000000000005,36.693000000000005
35.579,35.001999999999995,34.543,37.334,35.435,36.641999999999996
35.494,34.978,34.494,37.315,35.359,36.591
35.406,34.96,34.444,37.294000000000004,35.286,36.54
35.316,34.948,34.393,37.272,35.214,36.491
35.227,34.943000000000005,34.342,37.248000000000005,35.145,36.441
35.14,34.943000000000005,34.292,37.221,35.079,36.391
35.056,34.949,34.243,37.191,35.016,36.341
34.976,34.96,34.196,37.158,34.955999999999996,36.292
34.903,34.976,34.152,37.121,34.899,36.241
34.835,34.995,34.111999999999995,37.080999999999996,34.844,36.19
34.774,35.016,34.079,37.038000000000004,34.791,36.137
34.72,35.039,34.055,36.991,34.739000000000004,36.083
34.673,35.063,34.04,36.942,34.69,36.027
34.632,35.088,34.037,36.89,34.641,35.969
34.598,35.111,34.046,36.835,34.594,35.91
34.57,35.134,34.069,36.778,34.546,35.849000000000004
34.548,35.155,34.103,36.721,34.498000000000005,35.788000000000004
34.53,35.174,34.150999999999996,36.663000000000004,34.451,35.726
34.518,35.19,34.209,36.607,34.403,35.664
34.509,35.203,34.277,36.553000000000004,34.355,35.602
34.504,35.211999999999996,34.353,36.501,34.308,35.542
34.5,35.216,34.433,36.454,34.262,35.482
34.498000000000005,35.215,34.516999999999996,36.411,34.218,35.424
34.495,35.21,34.602,36.372,34.175,35.367
34.491,35.2,34.688,36.336999999999996,34.134,35.312
34.486,35.185,34.771,36.306999999999995,34.095,35.258
34.478,35.165,34.851,36.281,34.056999999999995,35.205
34.468,35.141,34.927,36.26,34.023,35.153
34.454,35.113,34.998000000000005,36.244,33.991,35.102
34.437,35.079,35.064,36.233000000000004,33.961999999999996,35.052
34.417,35.041,35.123000000000005,36.226,33.936,35.001999999999995
34.393,34.998000000000005,35.176,36.224000000000004,33.914,34.953
34.368,34.95,35.223,36.226,33.895,34.905
34.34,34.897,35.264,36.232,33.879,34.859
34.31,34.84,35.299,36.241,33.866,34.815
34.28,34.779,35.328,36.254,33.855,34.772
34.25,34.713,35.354,36.27,33.845,34.732
34.22,34.643,35.375,36.287,33.836,34.695
34.191,34.569,35.394,36.306,33.827,34.659
34.163000000000004,34.49,35.411,36.326,33.819,34.626
34.137,34.408,35.426,36.345,33.809,34.594
34.111999999999995,34.321999999999996,35.441,36.363,33.799,34.563
34.088,34.234,35.455,36.381,33.788000000000004,34.533
34.064,34.144,35.468,36.398,33.777,34.504
34.04,34.053000000000004,35.478,36.412,33.765,34.473
34.014,33.961999999999996,35.486,36.425,33.753,34.441
33.986999999999995,33.872,35.492,36.435,33.742,34.408
33.958,33.783,35.494,36.443000000000005,33.731,34.372
33.926,33.696999999999996,35.493,36.448,33.721,34.335
33.89,33.614000000000004,35.488,36.449,33.714,34.297
33.851,33.535,35.479,36.446,33.708,34.259
33.809,33.461,35.465,36.44,33.705,34.221
33.763000000000005,33.391,35.446999999999996,36.429,33.705,34.184
33.713,33.327,35.425,36.414,33.708,34.149
33.661,33.268,35.398,36.395,33.713,34.117
33.606,33.215,35.367,36.371,33.72,34.089
33.548,33.166,35.333,36.343,33.729,34.064
33.489000000000004,33.122,35.295,36.311,33.739000000000004,34.043
33.429,33.080999999999996,35.254,36.275999999999996,33.75,34.025
33.368,33.042,35.211999999999996,36.236999999999995,33.760999999999996,34.009
33.308,33.005,35.168,36.194,33.771,33.996
33.249,32.968,35.122,36.148,33.78,33.985
33.191,32.931,35.075,36.099000000000004,33.785,33.975
33.135,32.895,35.027,36.047,33.787,33.965
33.082,32.859,34.978,35.992,33.786,33.957
33.033,32.824,34.927,35.933,33.78,33.948
32.986,32.789,34.874,35.872,33.771,33.939
32.943000000000005,32.755,34.82,35.808,33.757,33.931
32.902,32.723,34.763000000000005,35.741,33.739000000000004,33.923
32.864000000000004,32.692,34.704,35.672,33.717,33.916
32.827,32.662,34.643,35.601,33.692,33.909
32.794000000000004,32.634,34.578,35.53,33.664,33.903
32.762,32.608000000000004,34.51,35.458,33.634,33.898
32.731,32.583,34.439,35.387,33.602,33.894
32.702,32.561,34.365,35.318000000000005,33.57,33.89
32.674,32.54,34.288000000000004,35.25,33.538000000000004,33.887
32.649,32.52,34.207,35.183,33.507,33.884
32.626,32.501,34.124,35.119,33.476,33.881
32.606,32.482,34.039,35.058,33.446,33.878
32.589,32.464,33.953,34.999,33.416,33.875
32.575,32.444,33.866,34.943000000000005,33.385999999999996,33.871
32.564,32.423,33.78,34.891,33.356,33.866
32.555,32.400999999999996,33.695,34.841,33.326,33.859
32.55,32.378,33.613,34.794000000000004,33.297,33.85
32.547,32.354,33.535,34.75,33.269,33.839
32.546,32.329,33.461999999999996,34.708,33.243,33.825
32.546,32.304,33.395,34.669000000000004,33.217,33.808
32.547,32.279,33.334,34.631,33.193000000000005,33.789
32.549,32.254,33.28,34.596,33.17,33.768
32.551,32.23,33.233000000000004,34.561,33.149,33.744
32.553000000000004,32.208,33.194,34.528,33.13,33.719
32.555,32.187,33.16,34.496,33.113,33.693000000000005
32.556,32.168,33.132,34.463,33.098,33.666
32.559,32.15,33.11,34.431,33.086999999999996,33.64
32.564,32.135,33.091,34.399,33.080999999999996,33.615
32.571999999999996,32.122,33.077,34.366,33.079,33.59
32.586999999999996,32.111,33.067,34.333,33.085,33.565
32.609,32.102,33.058,34.299,33.101,33.541
32.641,32.095,33.051,34.265,33.128,33.518
32.685,32.089,33.045,34.23,33.171,33.495
32.744,32.084,33.039,34.194,33.231,33.472
32.819,32.08,33.034,34.158,33.312,33.449
32.914,32.077,33.029,34.122,33.417,33.426
33.028,32.075,33.025,34.086,33.546,33.403
33.162,32.073,33.022,34.051,33.704,33.38
33.317,32.073,33.02,34.015,33.889,33.358000000000004
33.493,32.075,33.019,33.981,34.104,33.336
33.688,32.079,33.019,33.949,34.348,33.317
33.900999999999996,32.086,33.019,33.917,34.62,33.3
34.129,32.095,33.021,33.888000000000005,34.919000000000004,33.285
34.37,32.108000000000004,33.023,33.861,35.242,33.274
34.622,32.123000000000005,33.024,33.836,35.586999999999996,33.265
34.881,32.14,33.027,33.813,35.95,33.26
35.144,32.158,33.029,33.792,36.328,33.257
35.407,32.176,33.032,33.775,36.717,33.257
35.668,32.194,33.036,33.759,37.111999999999995,33.260999999999996
35.922,32.21,33.042,33.746,37.51,33.269
36.168,32.225,33.048,33.734,37.906,33.282
36.402,32.236999999999995,33.055,33.723,38.295,33.303000000000004
36.622,32.247,33.063,33.713,38.675,33.332
36.827,32.256,33.071999999999996,33.704,39.041,33.373000000000005
37.015,32.263000000000005,33.080999999999996,33.695,39.391,33.427
37.183,32.268,33.091,33.687,39.721,33.496
37.332,32.273,33.1,33.678000000000004,40.03,33.583
37.46,32.278,33.108000000000004,33.67,40.314,33.69
37.568000000000005,32.284,33.115,33.662,40.573,33.817
37.653,32.292,33.119,33.654,40.806,33.965
37.718,32.303000000000004,33.121,33.645,41.013000000000005,34.135
37.763000000000005,32.316,33.12,33.635999999999996,41.193000000000005,34.325
37.788000000000004,32.332,33.115,33.625,41.348,34.534
37.794000000000004,32.35,33.107,33.611999999999995,41.479,34.76
37.783,32.371,33.096,33.598,41.586000000000006,35.001999999999995
37.757,32.395,33.083,33.582,41.672,35.256
37.718,32.421,33.067,33.565,41.738,35.52
37.668,32.45,33.05,33.547,41.786,35.791
37.609,32.483000000000004,33.031,33.527,41.816,36.065
37.544000000000004,32.521,33.012,33.507,41.82899999999999,36.339
37.475,32.566,32.992,33.486,41.828,36.611
37.405,32.62,32.974000000000004,33.465,41.81100000000001,36.876999999999995
37.336,32.686,32.955999999999996,33.445,41.782,37.134
37.27,32.768,32.94,33.424,41.739,37.381
37.209,32.866,32.926,33.403,41.683,37.614000000000004
37.154,32.984,32.914,33.383,41.615,37.832
37.105,33.121,32.904,33.363,41.536,38.034
37.063,33.28,32.896,33.342,41.446999999999996,38.216
37.025999999999996,33.461,32.89,33.321,41.348,38.379
36.995,33.662,32.884,33.299,41.242,38.521
36.967,33.881,32.878,33.275999999999996,41.13,38.641
36.941,34.117,32.871,33.251999999999995,41.013000000000005,38.74
36.916,34.367,32.864000000000004,33.226,40.893,38.818000000000005
36.889,34.626,32.856,33.199,40.772,38.875
36.861,34.891999999999996,32.847,33.171,40.650999999999996,38.913000000000004
36.829,35.159,32.838,33.141999999999996,40.532,38.931999999999995
36.792,35.424,32.83,33.113,40.414,38.934
36.751,35.683,32.823,33.085,40.299,38.922
36.705,35.933,32.818000000000005,33.056999999999995,40.187,38.896
36.652,36.171,32.817,33.03,40.076,38.859
36.594,36.394,32.82,33.005,39.968,38.813
36.531,36.601,32.829,32.981,39.861,38.76
36.461999999999996,36.789,32.845,32.959,39.755,38.701
36.389,36.958,32.868,32.939,39.649,38.637
36.312,37.105,32.9,32.919000000000004,39.543,38.571
36.234,37.229,32.941,32.9,39.435,38.501
36.155,37.330999999999996,32.994,32.88,39.325,38.43
36.077,37.411,33.061,32.861,39.214,38.356
36.001,37.469,33.141999999999996,32.839,39.103,38.28
35.928000000000004,37.508,33.239000000000004,32.817,38.992,38.203
35.859,37.527,33.354,32.793,38.881,38.124
35.797,37.529,33.488,32.768,38.773,38.044000000000004
35.741,37.515,33.641,32.741,38.667,37.965
35.691,37.489000000000004,33.815,32.711999999999996,38.565,37.887
35.649,37.45,34.007,32.681999999999995,38.469,37.811
35.611999999999995,37.402,34.219,32.65,38.378,37.736999999999995
35.582,37.345,34.449,32.617,38.294000000000004,37.667
35.558,37.282,34.696,32.583,38.217,37.6
35.538000000000004,37.211999999999996,34.957,32.549,38.147,37.538000000000004
35.523,37.138000000000005,35.23,32.514,38.085,37.48
35.510999999999996,37.06,35.510999999999996,32.478,38.031,37.425
35.503,36.979,35.799,32.44,37.984,37.373000000000005
35.495,36.896,36.086999999999996,32.400999999999996,37.945,37.324
35.488,36.811,36.373000000000005,32.361,37.915,37.277
35.481,36.724000000000004,36.652,32.319,37.891999999999996,37.232
