Trial 1:0back,Trial 2:2back,Trial 3:3back,Trial 4:2back,Trial 5:3back,Trial 6:0back
35.314,34.134,32.595,34.046,35.033,33.234
35.321,34.141999999999996,32.563,34.117,35.145,33.211999999999996
35.333,34.147,32.533,34.179,35.238,33.19
35.346,34.149,32.505,34.233000000000004,35.312,33.169000000000004
35.36,34.15,32.482,34.28,35.369,33.148
35.373000000000005,34.149,32.466,34.321,35.41,33.126999999999995
35.383,34.145,32.461,34.357,35.436,33.107
35.389,34.14,32.467,34.389,35.45,33.086999999999996
35.391,34.133,32.488,34.418,35.452,33.068000000000005
35.387,34.125,32.524,34.442,35.446,33.05
35.376,34.117,32.579,34.46,35.433,33.031
35.359,34.109,32.654,34.472,35.414,33.010999999999996
35.335,34.1,32.75,34.478,35.393,32.99
35.305,34.09,32.867,34.475,35.369,32.967
35.266999999999996,34.08,33.001999999999995,34.467,35.344,32.942
35.225,34.069,33.155,34.452,35.318000000000005,32.917
35.177,34.056,33.324,34.433,35.292,32.891
35.126,34.041,33.505,34.41,35.266999999999996,32.864000000000004
35.071999999999996,34.024,33.696999999999996,34.385,35.242,32.836999999999996
35.015,34.005,33.895,34.359,35.219,32.812
34.955999999999996,33.983000000000004,34.096,34.333,35.199,32.79
34.895,33.958,34.295,34.308,35.181,32.772
34.834,33.931999999999995,34.49,34.286,35.167,32.763000000000005
34.772,33.904,34.676,34.264,35.155,32.764
34.711,33.874,34.851,34.243,35.146,32.778
34.650999999999996,33.842,35.012,34.222,35.139,32.806
34.592,33.809,35.159,34.201,35.131,32.852
34.533,33.775,35.291,34.18,35.123000000000005,32.916
34.475,33.741,35.408,34.16,35.114000000000004,32.998000000000005
34.415,33.705999999999996,35.509,34.14,35.103,33.1
34.355,33.67,35.596,34.123000000000005,35.089,33.22
34.293,33.634,35.668,34.107,35.069,33.358000000000004
34.231,33.598,35.726,34.093,35.044000000000004,33.51
34.168,33.561,35.77,34.080999999999996,35.012,33.675
34.106,33.525,35.802,34.07,34.974000000000004,33.849000000000004
34.044000000000004,33.49,35.823,34.06,34.929,34.028
33.984,33.458,35.832,34.05,34.876999999999995,34.211
33.925,33.426,35.832,34.038000000000004,34.819,34.395
33.867,33.397,35.821999999999996,34.024,34.755,34.576
33.812,33.37,35.804,34.008,34.686,34.753
33.758,33.344,35.778,33.988,34.615,34.923
33.705999999999996,33.319,35.746,33.968,34.544000000000004,35.083
33.656,33.295,35.709,33.946999999999996,34.475,35.231
33.607,33.272,35.666,33.927,34.408,35.365
33.559,33.25,35.62,33.908,34.343,35.483000000000004
33.510999999999996,33.228,35.57,33.893,34.283,35.586999999999996
33.464,33.207,35.518,33.88,34.228,35.676
33.417,33.185,35.464,33.87,34.18,35.751999999999995
33.369,33.165,35.407,33.863,34.14,35.816
33.321999999999996,33.146,35.348,33.857,34.11,35.869
33.274,33.126999999999995,35.287,33.852,34.089,35.911
33.225,33.11,35.223,33.848,34.078,35.943000000000005
33.175,33.094,35.157,33.843,34.076,35.968
33.124,33.079,35.088,33.838,34.082,35.986
33.071999999999996,33.066,35.018,33.833,34.095,35.999
33.018,33.055,34.946,33.827,34.113,36.006
32.963,33.047,34.873000000000005,33.821999999999996,34.135,36.007
32.907,33.045,34.8,33.817,34.159,36.001999999999995
32.847,33.051,34.726,33.812,34.185,35.994
32.785,33.065,34.652,33.808,34.21,35.98
32.719,33.088,34.58,33.804,34.233000000000004,35.963
32.65,33.124,34.508,33.798,34.251999999999995,35.94
32.579,33.174,34.439,33.79,34.268,35.912
32.506,33.24,34.373000000000005,33.779,34.277,35.878
32.431999999999995,33.323,34.311,33.765,34.28,35.838
32.358000000000004,33.424,34.253,33.75,34.275999999999996,35.795
32.284,33.543,34.199,33.734,34.263000000000005,35.75
32.211,33.679,34.149,33.717,34.243,35.704
32.14,33.83,34.102,33.701,34.217,35.659
32.071999999999996,33.995,34.058,33.686,34.184,35.617
32.007,34.169000000000004,34.016999999999996,33.673,34.148,35.577
31.947,34.351,33.979,33.661,34.109,35.538000000000004
31.894000000000002,34.537,33.945,33.649,34.069,35.501999999999995
31.848000000000003,34.723,33.916,33.637,34.03,35.466
31.81,34.905,33.891999999999996,33.624,33.992,35.429
31.783,35.08,33.872,33.611,33.957,35.391999999999996
31.767,35.246,33.859,33.598,33.927,35.352
31.764,35.4,33.849000000000004,33.584,33.900999999999996,35.309
31.776999999999997,35.54,33.844,33.57,33.879,35.265
31.805999999999997,35.665,33.841,33.556999999999995,33.863,35.219
31.854,35.773,33.839,33.546,33.85,35.17
31.921999999999997,35.864000000000004,33.839,33.536,33.84,35.12
32.014,35.939,33.839,33.528,33.833,35.069
32.128,35.999,33.84,33.522,33.828,35.019
32.268,36.042,33.841,33.515,33.823,34.972
32.431,36.071999999999996,33.843,33.508,33.818000000000005,34.927
32.618,36.088,33.846,33.499,33.813,34.887
32.826,36.093,33.85,33.488,33.806999999999995,34.85
33.055,36.089,33.854,33.475,33.8,34.818000000000005
33.3,36.077,33.858000000000004,33.461,33.794000000000004,34.791
33.56,36.06,33.861999999999995,33.445,33.787,34.769
33.832,36.038000000000004,33.866,33.429,33.78,34.751
34.111,36.013000000000005,33.869,33.413000000000004,33.773,34.736999999999995
34.395,35.986,33.871,33.398,33.766,34.724000000000004
34.681,35.957,33.872,33.383,33.758,34.713
34.964,35.926,33.872,33.369,33.748000000000005,34.703
35.242,35.894,33.871,33.358000000000004,33.735,34.696
35.512,35.859,33.869,33.346,33.719,34.69
35.77,35.821,33.866,33.335,33.7,34.686
36.014,35.78,33.863,33.323,33.678000000000004,34.683
36.244,35.736,33.861,33.31,33.653,34.678000000000004
36.455999999999996,35.688,33.858000000000004,33.296,33.625,34.672
36.650999999999996,35.637,33.856,33.282,33.596,34.664
36.827,35.583,33.853,33.268,33.565,34.653
36.982,35.525,33.847,33.254,33.532,34.641
37.116,35.465,33.84,33.241,33.499,34.628
37.229,35.403,33.828,33.228,33.467,34.614000000000004
37.32,35.338,33.813,33.215,33.437,34.6
37.391,35.271,33.795,33.203,33.409,34.586999999999996
37.441,35.204,33.775,33.191,33.384,34.574
37.474000000000004,35.135999999999996,33.753,33.179,33.361999999999995,34.563
37.488,35.07,33.731,33.165,33.342,34.552
37.486,35.005,33.71,33.15,33.324,34.542
37.469,34.943000000000005,33.69,33.134,33.308,34.533
37.438,34.884,33.672,33.119,33.292,34.525999999999996
37.396,34.827,33.655,33.103,33.275999999999996,34.519
37.344,34.774,33.637,33.088,33.259,34.514
37.285,34.722,33.62,33.075,33.241,34.509
37.22,34.674,33.602,33.063,33.223,34.505
37.150999999999996,34.628,33.585,33.051,33.204,34.5
37.079,34.584,33.568000000000005,33.038000000000004,33.184,34.494
37.005,34.543,33.55,33.024,33.165,34.485
36.929,34.504,33.533,33.007,33.145,34.473
36.851,34.467,33.515,32.986999999999995,33.125,34.458
36.772,34.431999999999995,33.497,32.965,33.104,34.438
36.691,34.4,33.479,32.941,33.082,34.414
36.609,34.372,33.459,32.916,33.059,34.388000000000005
36.525,34.347,33.437,32.891,33.035,34.36
36.44,34.326,33.413000000000004,32.867,33.010999999999996,34.333
36.353,34.309,33.388000000000005,32.845,32.986,34.306
36.264,34.296,33.36,32.827,32.959,34.282
36.171,34.288000000000004,33.33,32.812,32.93,34.259
36.076,34.283,33.297,32.801,32.899,34.238
35.976,34.282,33.264,32.794000000000004,32.866,34.218
35.874,34.286,33.229,32.789,32.832,34.201
35.77,34.293,33.194,32.789,32.798,34.186
35.664,34.303000000000004,33.159,32.792,32.766,34.172
35.556999999999995,34.315,33.125,32.8,32.738,34.159
35.452,34.328,33.092,32.813,32.715,34.147
35.349000000000004,34.34,33.06,32.830999999999996,32.7,34.134
35.248000000000005,34.352,33.03,32.856,32.695,34.122
35.15,34.361,33.001,32.888000000000005,32.701,34.108000000000004
35.055,34.368,32.974000000000004,32.927,32.72,34.094
34.964,34.373000000000005,32.949,32.974000000000004,32.751999999999995,34.077
34.878,34.375,32.925,33.029,32.799,34.056999999999995
34.796,34.374,32.899,33.091,32.861,34.034
34.719,34.371,32.872,33.16,32.937,34.009
34.647,34.366,32.844,33.235,33.027,33.983000000000004
34.58,34.359,32.815,33.317,33.129,33.957
34.516999999999996,34.351,32.787,33.403,33.241,33.931
34.46,34.343,32.76,33.493,33.361,33.905
34.409,34.335,32.736,33.586999999999996,33.485,33.876999999999995
34.364000000000004,34.327,32.716,33.683,33.611,33.849000000000004
34.325,34.32,32.702,33.779,33.736999999999995,33.819
34.292,34.313,32.695,33.876,33.861,33.79
34.264,34.306,32.696,33.97,33.983000000000004,33.762
34.241,34.298,32.707,34.061,34.099000000000004,33.734
34.222,34.29,32.731,34.147,34.211999999999996,33.708
34.207,34.28,32.768,34.225,34.318000000000005,33.683
34.194,34.269,32.821,34.296,34.418,33.66
34.183,34.255,32.893,34.357,34.51,33.639
34.175,34.239000000000004,32.985,34.409,34.594,33.62
34.17,34.22,33.098,34.453,34.669000000000004,33.604
34.167,34.198,33.232,34.488,34.736,33.586999999999996
34.166,34.173,33.383,34.516999999999996,34.796,33.57
34.167,34.145,33.55,34.541,34.849000000000004,33.552
34.171,34.115,33.729,34.561,34.896,33.532
34.175,34.083,33.917,34.577,34.939,33.513000000000005
34.18,34.049,34.111,34.59,34.977,33.493
34.187,34.014,34.306999999999995,34.602,35.010999999999996,33.474000000000004
34.193000000000005,33.978,34.501999999999995,34.611999999999995,35.042,33.455999999999996
34.198,33.941,34.692,34.62,35.069,33.438
34.202,33.904,34.875,34.626999999999995,35.094,33.42
34.203,33.866,35.047,34.632,35.116,33.403
34.201,33.829,35.207,34.633,35.135999999999996,33.387
34.196999999999996,33.791,35.353,34.632,35.155,33.373000000000005
34.189,33.754,35.483000000000004,34.629,35.171,33.36
34.177,33.718,35.597,34.625,35.186,33.348
34.161,33.684,35.694,34.621,35.198,33.335
34.141999999999996,33.65,35.774,34.618,35.205,33.323
34.118,33.617,35.836,34.615,35.207,33.311
34.09,33.585,35.881,34.614000000000004,35.203,33.299
34.056999999999995,33.555,35.91,34.614000000000004,35.193000000000005,33.288000000000004
34.022,33.525,35.925,34.616,35.176,33.278
33.982,33.497,35.928000000000004,34.616,35.152,33.268
33.941,33.471,35.919000000000004,34.615,35.121,33.259
33.897,33.446999999999996,35.9,34.61,35.086,33.251
33.853,33.424,35.872,34.599000000000004,35.047,33.247
33.808,33.403,35.838,34.584,35.007,33.249
33.765,33.384,35.798,34.563,34.966,33.26
33.722,33.366,35.754,34.537,34.926,33.281
33.681,33.349000000000004,35.707,34.509,34.887,33.315
33.641,33.333,35.657,34.48,34.851,33.361999999999995
33.604,33.316,35.606,34.451,34.819,33.423
33.568000000000005,33.298,35.554,34.423,34.79,33.5
33.534,33.278,35.501999999999995,34.399,34.764,33.592
33.501999999999995,33.257,35.45,34.378,34.742,33.696999999999996
33.471,33.233000000000004,35.397,34.361,34.723,33.816
33.44,33.208,35.343,34.346,34.705999999999996,33.946
33.408,33.181999999999995,35.286,34.334,34.69,34.086
33.374,33.154,35.228,34.321,34.677,34.233000000000004
33.338,33.125,35.166,34.309,34.665,34.385999999999996
33.302,33.094,35.103,34.296,34.655,34.541
33.264,33.063,35.039,34.283,34.647,34.696
33.228,33.032,34.973,34.27,34.64,34.848
33.191,33.0,34.908,34.257,34.634,34.995
33.156,32.97,34.842,34.246,34.628,35.133
33.122,32.941,34.777,34.236,34.623000000000005,35.260999999999996
33.09,32.914,34.713,34.228,34.618,35.378
33.059,32.891999999999996,34.649,34.22,34.613,35.48
33.029,32.874,34.586,34.211999999999996,34.608000000000004,35.569
32.999,32.863,34.525,34.204,34.602,35.644
32.969,32.86,34.464,34.196,34.594,35.705
32.938,32.865,34.405,34.185,34.585,35.754
32.906,32.881,34.348,34.172,34.571999999999996,35.791
32.871,32.908,34.293,34.157,34.558,35.818000000000005
32.834,32.949,34.24,34.141,34.541,35.836
32.793,33.006,34.191,34.124,34.524,35.847
32.75,33.079,34.145,34.108000000000004,34.507,35.852
32.702,33.17,34.104,34.092,34.493,35.853
32.650999999999996,33.278,34.065,34.078,34.481,35.85
32.597,33.404,34.03,34.065,34.471,35.843
32.541,33.545,33.997,34.054,34.465,35.833
32.484,33.701,33.969,34.044000000000004,34.459,35.818000000000005
32.427,33.87,33.943000000000005,34.036,34.455,35.799
32.371,34.05,33.921,34.029,34.45,35.777
32.316,34.238,33.902,34.023,34.444,35.751999999999995
32.264,34.431,33.887,34.02,34.438,35.723
32.215,34.626,33.873000000000005,34.018,34.431999999999995,35.691
32.169000000000004,34.82,33.861999999999995,34.018,34.426,35.656
32.128,35.01,33.852,34.02,34.419000000000004,35.619
32.091,35.193000000000005,33.843,34.024,34.413000000000004,35.58
32.059,35.366,33.838,34.029,34.407,35.541
32.033,35.528,33.835,34.034,34.402,35.501
32.012,35.676,33.834,34.039,34.399,35.461
31.996,35.806999999999995,33.835,34.041,34.4,35.42
31.985,35.921,33.838,34.041,34.403,35.38
31.979,36.016999999999996,33.842,34.036,34.411,35.339
31.976999999999997,36.095,33.848,34.027,34.421,35.299
31.979,36.154,33.855,34.013000000000005,34.435,35.26
31.986,36.196,33.863,33.996,34.45,35.221
31.998,36.221,33.871,33.974000000000004,34.465,35.183
32.016,36.231,33.88,33.951,34.479,35.147
32.043,36.227,33.89,33.927,34.491,35.111
32.08,36.21,33.898,33.903,34.499,35.076
32.13,36.183,33.907,33.881,34.501999999999995,35.04
32.195,36.146,33.914,33.86,34.501,35.001999999999995
32.277,36.102,33.92,33.839,34.495,34.964
32.376,36.052,33.924,33.819,34.484,34.926
32.496,35.998000000000005,33.926,33.799,34.467,34.888000000000005
32.635999999999996,35.942,33.926,33.778,34.444,34.85
32.796,35.885,33.924,33.757,34.417,34.814
32.975,35.827,33.92,33.736,34.385,34.778
33.173,35.771,33.915,33.716,34.35,34.742
33.387,35.717,33.909,33.696999999999996,34.314,34.708
33.613,35.667,33.903,33.681999999999995,34.278,34.676
33.849000000000004,35.621,33.895,33.669000000000004,34.242,34.646
34.09,35.578,33.887,33.66,34.208,34.619
34.332,35.539,33.876999999999995,33.654,34.175,34.595
34.57,35.501999999999995,33.867,33.65,34.143,34.573
34.801,35.466,33.856,33.647,34.113,34.554
35.021,35.43,33.843,33.641999999999996,34.084,34.538000000000004
35.227,35.393,33.829,33.635999999999996,34.056999999999995,34.525
35.416,35.356,33.814,33.626,34.034,34.515
35.588,35.316,33.797,33.614000000000004,34.015,34.507
35.741,35.275,33.778,33.599000000000004,34.0,34.501
35.874,35.231,33.759,33.582,33.989000000000004,34.496
35.99,35.184,33.738,33.563,33.982,34.492
36.088,35.135999999999996,33.718,33.545,33.98,34.489000000000004
36.171,35.086,33.696,33.528,33.981,34.486
36.24,35.035,33.673,33.512,33.984,34.486
36.297,34.983000000000004,33.649,33.497,33.99,34.486999999999995
36.344,34.931,33.625,33.484,33.995,34.488
36.381,34.88,33.6,33.471,34.001,34.489000000000004
36.409,34.829,33.573,33.458,34.006,34.489000000000004
36.427,34.781,33.546,33.445,34.009,34.49
36.436,34.736,33.516999999999996,33.431999999999995,34.01,34.49
36.437,34.695,33.486,33.418,34.008,34.49
36.43,34.657,33.455999999999996,33.405,34.004,34.489000000000004
36.415,34.624,33.425,33.391999999999996,33.996,34.488
36.391999999999996,34.594,33.395,33.379,33.985,34.486999999999995
36.361999999999995,34.567,33.365,33.365,33.971,34.486
36.325,34.544000000000004,33.336999999999996,33.351,33.955,34.485
36.282,34.524,33.309,33.335,33.937,34.484
36.233000000000004,34.507,33.283,33.318000000000005,33.918,34.482
36.178000000000004,34.492,33.259,33.299,33.897,34.478
36.118,34.479,33.238,33.28,33.875,34.472
36.052,34.467,33.219,33.260999999999996,33.852,34.463
35.981,34.458,33.202,33.243,33.829,34.452
35.905,34.452,33.187,33.227,33.806,34.438
35.825,34.446999999999996,33.172,33.214,33.783,34.423
35.74,34.444,33.158,33.205,33.760999999999996,34.407
35.65,34.441,33.143,33.2,33.74,34.39
35.556999999999995,34.438,33.126999999999995,33.201,33.721,34.372
35.461,34.436,33.109,33.208,33.707,34.352
35.364000000000004,34.436,33.089,33.222,33.696,34.330999999999996
35.266999999999996,34.436,33.067,33.242,33.692,34.308
35.17,34.439,33.045,33.269,33.695,34.283
35.076,34.443000000000005,33.022,33.304,33.705,34.256
34.985,34.449,33.0,33.348,33.723,34.229
34.898,34.455999999999996,32.978,33.402,33.749,34.202
34.816,34.464,32.955999999999996,33.464,33.784,34.175
34.74,34.473,32.935,33.534,33.828,34.15
34.671,34.482,32.913000000000004,33.611999999999995,33.88,34.125
34.608000000000004,34.49,32.891999999999996,33.696,33.941,34.101
34.552,34.498000000000005,32.874,33.783,34.01,34.078
34.501999999999995,34.503,32.86,33.873000000000005,34.086999999999996,34.055
34.458,34.507,32.851,33.963,34.171,34.034
34.42,34.509,32.85,34.05,34.263000000000005,34.012
34.385,34.508,32.86,34.133,34.361,33.99
34.355,34.505,32.883,34.21,34.465,33.967
34.328,34.498000000000005,32.922,34.28,34.574,33.944
34.303000000000004,34.489000000000004,32.979,34.343,34.687,33.921
34.28,34.477,33.055,34.4,34.803000000000004,33.898
34.259,34.464,33.150999999999996,34.452,34.92,33.876999999999995
34.241,34.448,33.266,34.5,35.04,33.858000000000004
34.224000000000004,34.431,33.4,34.545,35.162,33.84
34.209,34.411,33.552,34.589,35.285,33.821999999999996
34.196,34.39,33.719,34.632,35.407,33.804
34.184,34.366,33.899,34.672,35.529,33.785
34.175,34.341,34.088,34.711,35.649,33.766999999999996
34.168,34.315,34.284,34.746,35.766999999999996,33.75
34.162,34.289,34.482,34.777,35.881,33.734
34.159,34.262,34.678000000000004,34.803000000000004,35.991,33.72
34.158,34.235,34.868,34.821,36.095,33.708
34.158,34.208,35.051,34.830999999999996,36.194,33.696999999999996
34.161,34.181,35.223,34.834,36.286,33.687
34.166,34.154,35.383,34.830999999999996,36.371,33.679
34.173,34.126,35.527,34.823,36.45,33.672
34.181999999999995,34.098,35.654,34.812,36.52,33.664
34.193000000000005,34.07,35.764,34.799,36.583,33.657
34.205,34.042,35.856,34.785,36.638000000000005,33.65
34.216,34.014,35.93,34.773,36.685,33.641999999999996
34.226,33.986999999999995,35.988,34.760999999999996,36.724000000000004,33.634
34.235,33.961,36.031,34.749,36.754,33.624
34.241,33.937,36.061,34.736,36.775,33.614000000000004
34.243,33.914,36.08,34.723,36.789,33.601
34.24,33.891,36.089,34.707,36.794000000000004,33.586999999999996
34.232,33.87,36.091,34.69,36.792,33.571
34.218,33.849000000000004,36.086999999999996,34.67,36.784,33.553000000000004
34.198,33.829,36.077,34.647,36.771,33.534
34.17,33.808,36.063,34.623000000000005,36.754,33.514
34.135999999999996,33.787,36.046,34.598,36.735,33.492
34.096,33.765,36.025999999999996,34.573,36.716,33.469
34.051,33.742,36.004,34.548,36.696,33.443000000000005
34.001,33.719,35.978,34.524,36.677,33.416
33.948,33.696,35.949,34.501,36.659,33.388000000000005
33.894,33.672,35.915,34.479,36.64,33.36
33.839,33.647,35.878,34.459,36.62,33.333
33.787,33.622,35.835,34.439,36.599000000000004,33.306999999999995
33.736999999999995,33.597,35.788000000000004,34.419000000000004,36.578,33.282
33.691,33.573,35.736,34.399,36.555,33.259
33.650999999999996,33.55,35.68,34.376999999999995,36.531,33.24
33.616,33.528,35.621,34.354,36.506,33.225
33.588,33.509,35.56,34.332,36.481,33.217
33.567,33.491,35.496,34.31,36.455999999999996,33.217
33.551,33.476,35.431,34.29,36.43,33.228
33.54,33.461999999999996,35.364000000000004,34.272,36.403,33.25
33.533,33.45,35.296,34.255,36.373000000000005,33.285
33.528,33.439,35.228,34.24,36.342,33.334
33.525,33.43,35.159,34.226,36.308,33.397
33.523,33.421,35.092,34.213,36.269,33.474000000000004
33.519,33.412,35.025999999999996,34.203,36.226,33.566
33.512,33.402,34.961999999999996,34.194,36.179,33.672
33.501,33.391999999999996,34.900999999999996,34.187,36.128,33.791
33.484,33.381,34.842,34.181,36.076,33.921
33.461,33.368,34.786,34.176,36.023,34.061
33.431999999999995,33.352,34.734,34.174,35.969,34.207
33.396,33.336,34.685,34.174,35.915,34.356
33.355,33.318000000000005,34.64,34.178000000000004,35.861,34.505
33.306999999999995,33.301,34.599000000000004,34.184,35.808,34.652
33.255,33.285,34.562,34.192,35.756,34.793
33.2,33.273,34.528,34.202,35.705999999999996,34.928000000000004
33.141,33.265,34.497,34.211999999999996,35.658,35.053000000000004
33.083,33.265,34.468,34.221,35.613,35.168
33.025999999999996,33.275,34.441,34.23,35.571999999999996,35.272
32.973,33.297,34.416,34.238,35.534,35.361999999999995
32.924,33.334,34.394,34.245,35.499,35.44
32.88,33.385999999999996,34.374,34.251999999999995,35.468,35.505
32.843,33.455999999999996,34.358000000000004,34.258,35.441,35.558
32.811,33.543,34.346,34.265,35.417,35.598
32.786,33.647,34.338,34.272,35.395,35.626
32.765,33.766999999999996,34.334,34.279,35.376999999999995,35.643
32.747,33.903,34.334,34.286,35.361,35.65
32.73,34.052,34.336999999999996,34.294000000000004,35.348,35.649
32.713,34.211999999999996,34.342,34.302,35.338,35.641999999999996
32.694,34.381,34.349000000000004,34.308,35.330999999999996,35.629
32.673,34.555,34.358000000000004,34.313,35.327,35.611
32.647,34.733000000000004,34.369,34.315,35.324,35.59
32.618,34.909,34.38,34.315,35.324,35.567
32.585,35.082,34.393,34.311,35.323,35.542
32.55,35.249,34.405,34.303000000000004,35.321,35.516999999999996
32.513000000000005,35.407,34.418,34.292,35.317,35.493
32.477,35.556,34.429,34.277,35.31,35.47
32.445,35.693000000000005,34.438,34.260999999999996,35.298,35.449
32.418,35.818000000000005,34.445,34.243,35.281,35.429
32.402,35.93,34.45,34.224000000000004,35.26,35.41
32.399,36.03,34.454,34.204,35.236,35.391
32.413000000000004,36.118,34.458,34.185,35.21,35.37
32.448,36.193000000000005,34.46,34.167,35.183,35.348
32.506,36.256,34.461,34.148,35.155,35.324
32.59,36.306999999999995,34.46,34.129,35.126,35.298
32.698,36.346,34.457,34.11,35.095,35.269
32.832,36.373000000000005,34.453,34.089,35.061,35.239000000000004
32.988,36.388000000000005,34.446,34.067,35.024,35.208
33.165,36.391,34.438,34.045,34.985,35.175
33.358000000000004,36.382,34.429,34.024,34.943000000000005,35.141
33.563,36.363,34.419000000000004,34.004,34.9,35.105
33.775999999999996,36.333,34.409,33.986999999999995,34.855,35.068000000000005
33.993,36.295,34.4,33.974000000000004,34.81,35.032
34.209,36.25,34.39,33.963,34.765,34.997
34.42,36.198,34.38,33.955,34.721,34.961999999999996
34.623000000000005,36.143,34.37,33.949,34.678000000000004,34.929
34.816,36.084,34.361,33.944,34.635999999999996,34.897
34.996,36.024,34.352,33.94,34.599000000000004,34.867
35.162,35.964,34.343,33.936,34.565,34.838
35.314,35.903,34.334,33.931999999999995,34.537,34.812
35.45,35.843,34.324,33.926,34.515,34.788000000000004
35.571999999999996,35.783,34.312,33.921,34.499,34.765
35.68,35.725,34.297,33.915,34.488,34.744
35.774,35.668,34.28,33.909,34.481,34.723
35.855,35.611999999999995,34.26,33.903,34.476,34.703
35.922,35.556,34.238,33.897,34.471,34.684
35.978,35.5,34.214,33.89,34.466,34.667
36.022,35.445,34.189,33.881,34.461,34.653
36.055,35.39,34.163000000000004,33.87,34.454,34.64
36.079,35.335,34.135999999999996,33.856,34.445,34.628
36.093,35.278,34.109,33.838,34.435,34.619
36.098,35.22,34.08,33.818000000000005,34.423,34.611
36.095,35.162,34.051,33.794000000000004,34.41,34.605
36.085,35.101,34.021,33.768,34.395,34.6
36.068000000000005,35.039,33.991,33.741,34.378,34.597
36.045,34.977,33.959,33.714,34.358000000000004,34.596
36.016,34.913000000000004,33.927,33.687,34.336,34.596
35.982,34.849000000000004,33.895,33.664,34.313,34.599000000000004
35.943000000000005,34.785,33.863,33.646,34.288000000000004,34.603
35.899,34.724000000000004,33.832,33.631,34.260999999999996,34.608000000000004
35.851,34.665,33.804,33.62,34.233000000000004,34.611999999999995
35.799,34.61,33.777,33.613,34.202,34.615
35.744,34.56,33.751999999999995,33.608000000000004,34.169000000000004,34.617
35.685,34.514,33.729,33.605,34.134,34.618
35.624,34.473,33.705999999999996,33.604,34.098,34.619
35.562,34.437,33.685,33.604,34.061,34.621
35.499,34.409,33.663000000000004,33.606,34.024,34.622
35.436,34.385999999999996,33.641999999999996,33.61,33.988,34.624
35.374,34.371,33.621,33.615,33.955,34.626999999999995
35.311,34.361,33.601,33.622,33.926,34.63
35.25,34.358000000000004,33.579,33.632,33.900999999999996,34.633
35.188,34.359,33.558,33.646,33.88,34.635999999999996
35.126999999999995,34.365,33.536,33.663000000000004,33.863,34.638000000000005
35.067,34.375,33.514,33.684,33.85,34.639
35.007,34.388000000000005,33.492,33.711,33.84,34.639
34.946999999999996,34.402,33.47,33.743,33.833,34.637
34.885,34.416,33.446999999999996,33.781,33.827,34.635
34.821999999999996,34.429,33.423,33.823,33.824,34.633
34.758,34.442,33.398,33.871,33.82,34.63
34.693000000000005,34.454,33.372,33.924,33.817,34.625
34.628,34.464,33.346,33.984,33.813,34.62
34.563,34.472,33.32,34.049,33.806999999999995,34.611999999999995
34.501,34.479,33.297,34.12,33.799,34.601
34.441,34.482,33.275999999999996,34.196,33.789,34.589
34.385,34.482,33.258,34.275999999999996,33.775999999999996,34.574
34.334,34.479,33.246,34.359,33.76,34.558
34.29,34.473,33.241,34.443000000000005,33.74,34.54
34.254,34.464,33.243,34.525999999999996,33.718,34.521
34.226,34.452,33.254,34.607,33.693000000000005,34.5
34.204,34.437,33.275999999999996,34.684,33.667,34.477
34.19,34.42,33.311,34.755,33.641,34.454
34.183,34.400999999999996,33.358000000000004,34.821,33.618,34.43
34.181,34.379,33.421,34.88,33.599000000000004,34.406
34.184,34.357,33.5,34.934,33.586,34.382
34.192,34.333,33.598,34.983000000000004,33.580999999999996,34.358000000000004
34.204,34.308,33.715,35.025999999999996,33.586,34.336999999999996
34.22,34.283,33.851,35.066,33.601,34.317
34.239000000000004,34.257,34.004,35.102,33.628,34.3
34.259,34.23,34.172,35.134,33.667,34.286
34.281,34.203,34.353,35.162,33.719,34.273
34.302,34.176,34.543,35.185,33.784,34.260999999999996
34.321,34.148,34.739000000000004,35.203,33.864000000000004,34.249
34.339,34.12,34.937,35.214,33.958,34.236999999999995
34.353,34.091,35.133,35.22,34.065,34.226
34.364000000000004,34.062,35.325,35.221,34.185,34.213
34.371,34.033,35.508,35.218,34.315,34.2
34.372,34.004,35.679,35.21,34.453,34.187
34.369,33.973,35.838,35.198,34.595,34.173
34.359,33.941,35.982,35.184,34.74,34.16
34.344,33.908,36.11,35.166,34.884,34.146
34.323,33.874,36.222,35.146,35.025,34.132
34.296,33.839,36.319,35.124,35.161,34.118
34.263000000000005,33.805,36.399,35.1,35.289,34.103
34.225,33.772,36.464,35.076,35.408,34.086999999999996
34.183,33.741,36.516,35.05,35.515,34.071999999999996
34.139,33.711,36.555,35.023,35.609,34.058
34.093,33.683,36.583,34.998000000000005,35.69,34.046
34.047,33.659,36.6,34.973,35.759,34.035
34.003,33.637,36.608000000000004,34.951,35.814,34.027
33.961,33.617,36.609,34.931999999999995,35.859,34.019
33.922,33.597,36.602,34.916,35.891999999999996,34.014
33.887,33.577,36.59,34.904,35.916,34.009
33.856,33.556999999999995,36.571,34.895,35.931,34.004
33.83,33.538000000000004,36.548,34.888000000000005,35.938,33.998000000000005
33.809,33.519,36.521,34.883,35.938,33.991
33.791,33.501,36.489000000000004,34.879,35.93,33.981
33.777,33.484,36.453,34.874,35.918,33.969
33.765,33.468,36.414,34.869,35.902,33.954
33.754,33.452,36.371,34.861999999999995,35.883,33.938
33.743,33.437,36.326,34.851,35.861999999999995,33.918
33.732,33.422,36.279,34.836,35.841,33.896
33.718,33.408,36.23,34.817,35.819,33.871
33.701,33.396,36.18,34.793,35.799,33.845
33.681,33.384,36.128,34.766,35.779,33.818000000000005
33.655,33.373000000000005,36.074,34.736999999999995,35.762,33.794000000000004
33.625,33.364000000000004,36.019,34.708,35.746,33.775
33.59,33.355,35.961,34.681,35.731,33.765
33.551,33.347,35.900999999999996,34.656,35.717,33.766999999999996
33.508,33.339,35.839,34.635999999999996,35.702,33.781
33.461,33.33,35.775,34.619,35.686,33.809
33.412,33.319,35.709,34.606,35.668,33.853
33.361,33.306,35.641999999999996,34.598,35.649,33.912
33.31,33.291,35.575,34.594,35.628,33.986999999999995
33.259,33.274,35.507,34.593,35.606,34.077
33.208,33.254,35.44,34.594,35.582,34.181
33.16,33.233000000000004,35.374,34.597,35.556999999999995,34.296
33.113,33.209,35.312,34.6,35.529,34.422
33.069,33.183,35.253,34.602,35.498000000000005,34.556
33.028,33.155,35.199,34.605,35.466,34.696
32.991,33.125,35.15,34.607,35.433,34.84
32.955999999999996,33.094,35.105,34.609,35.399,34.985
32.924,33.062,35.066,34.611,35.365,35.128
32.895,33.03,35.032,34.613,35.33,35.265
32.87,32.998000000000005,35.003,34.615,35.297,35.396
32.848,32.968,34.979,34.618,35.265,35.518
32.829,32.94,34.959,34.619,35.235,35.632
32.812,32.915,34.944,34.62,35.205999999999996,35.736
32.796,32.894,34.933,34.621,35.18,35.829
32.779,32.876999999999995,34.926,34.62,35.158,35.91
32.760999999999996,32.865,34.921,34.618,35.139,35.979
32.742,32.859,34.92,34.614000000000004,35.124,36.036
32.719,32.859,34.921,34.611,35.113,36.083
32.691,32.866,34.924,34.607,35.104,36.12
32.658,32.884,34.928000000000004,34.604,35.097,36.148
32.62,32.912,34.934,34.602,35.091,36.168
32.578,32.954,34.939,34.601,35.085,36.181
32.531,33.010999999999996,34.944,34.602,35.076,36.186
32.482,33.084,34.948,34.602,35.066,36.185
32.433,33.174,34.951,34.602,35.052,36.179
32.385,33.281,34.952,34.6,35.035,36.167
32.341,33.403,34.952,34.595,35.014,36.150999999999996
32.304,33.539,34.949,34.586999999999996,34.99,36.129
32.275,33.687,34.943000000000005,34.576,34.963,36.105
32.258,33.844,34.936,34.561,34.933,36.078
32.255,34.008,34.928000000000004,34.543,34.903,36.05
32.269,34.174,34.92,34.523,34.873000000000005,36.02
32.302,34.341,34.913000000000004,34.501999999999995,34.845,35.99
32.355,34.505,34.908,34.482,34.82,35.958
32.429,34.663000000000004,34.903,34.461,34.8,35.927
32.525,34.813,34.900999999999996,34.443000000000005,34.784,35.897
32.643,34.952,34.9,34.427,34.772,35.866
32.782,35.077,34.902,34.412,34.763000000000005,35.834
32.941,35.189,34.907,34.4,34.757,35.8
33.118,35.285,34.912,34.39,34.755,35.765
33.31,35.366,34.919000000000004,34.38,34.754,35.727
33.515,35.431,34.925,34.372,34.756,35.689
33.729,35.482,34.93,34.364000000000004,34.758,35.649
33.946999999999996,35.519,34.934,34.358000000000004,34.762,35.609
34.166,35.544000000000004,34.937,34.355,34.766,35.568000000000005
34.38,35.559,34.939,34.353,34.768,35.525
34.585,35.565,34.94,34.354,34.766999999999996,35.482
34.78,35.564,34.939,34.356,34.764,35.438
34.96,35.558,34.937,34.359,34.757,35.394
35.124,35.547,34.933,34.361999999999995,34.747,35.352
35.272,35.533,34.928000000000004,34.365,34.732,35.31
35.402,35.516999999999996,34.919000000000004,34.366,34.714,35.271
35.514,35.498000000000005,34.908,34.365,34.692,35.232
35.608000000000004,35.477,34.894,34.36,34.667,35.195
35.684,35.453,34.876,34.351,34.639,35.16
35.743,35.428000000000004,34.856,34.338,34.607,35.125
35.788000000000004,35.4,34.833,34.32,34.571,35.092
35.818000000000005,35.371,34.806999999999995,34.299,34.533,35.06
35.836999999999996,35.341,34.781,34.275,34.492,35.03
35.846,35.31,34.754,34.251,34.45,35.001999999999995
35.846,35.277,34.728,34.225,34.409,34.976
35.839,35.241,34.702,34.201,34.369,34.953
35.826,35.203,34.677,34.177,34.330999999999996,34.931999999999995
35.808,35.162,34.653,34.155,34.296,34.912
35.785,35.12,34.626999999999995,34.134,34.262,34.896
35.758,35.075,34.6,34.113,34.231,34.881
35.728,35.03,34.571999999999996,34.093,34.202,34.87
35.695,34.983000000000004,34.544000000000004,34.073,34.176,34.86
35.658,34.937,34.516,34.054,34.152,34.851
35.618,34.89,34.488,34.036,34.132,34.844
35.573,34.845,34.46,34.019,34.114000000000004,34.836999999999996
35.525,34.8,34.434,34.003,34.1,34.832
35.471,34.757,34.409,33.988,34.086999999999996,34.828
35.413000000000004,34.716,34.385,33.975,34.076,34.825
35.352,34.677,34.364000000000004,33.964,34.065,34.823
35.287,34.641,34.346,33.955999999999996,34.054,34.821
35.219,34.608000000000004,34.329,33.95,34.043,34.817
35.149,34.578,34.314,33.946999999999996,34.031,34.814
35.077,34.552,34.301,33.946,34.019,34.811
35.004,34.529,34.291,33.949,34.007,34.809
34.931,34.509,34.281,33.955999999999996,33.995,34.81
34.859,34.491,34.272,33.968,33.982,34.813
34.789,34.476,34.263000000000005,33.988,33.969,34.818000000000005
34.722,34.461999999999996,34.253,34.016,33.955,34.824
34.657,34.451,34.24,34.055,33.94,34.830999999999996
34.596,34.441,34.224000000000004,34.104,33.924,34.839
34.538000000000004,34.433,34.205,34.165,33.906,34.847
34.484,34.427,34.183,34.238,33.887,34.855
34.431999999999995,34.423,34.158,34.32,33.867,34.864000000000004
34.384,34.422,34.13,34.411,33.846,34.871
34.339,34.424,34.1,34.508,33.826,34.878
34.297,34.43,34.069,34.608000000000004,33.806,34.884
34.259,34.439,34.036,34.71,33.786,34.889
34.223,34.452,34.003,34.81,33.766999999999996,34.893
34.189,34.469,33.97,34.906,33.748000000000005,34.898
34.156,34.49,33.939,34.999,33.728,34.900999999999996
34.126,34.515,33.91,35.086,33.705999999999996,34.902
34.097,34.545,33.883,35.168,33.681,34.900999999999996
34.068000000000005,34.577,33.86,35.245,33.653,34.898
34.041,34.613,33.843,35.316,33.622,34.891999999999996
34.016,34.65,33.832,35.38,33.588,34.883
33.992,34.688,33.832,35.436,33.552,34.871
33.97,34.725,33.843,35.484,33.515,34.853
33.951,34.762,33.868,35.523,33.477,34.830999999999996
33.933,34.796,33.908,35.553000000000004,33.441,34.804
33.917,34.827,33.965,35.573,33.407,34.773
33.902,34.853,34.04,35.583,33.379,34.738
33.888000000000005,34.875,34.134,35.584,33.358000000000004,34.699
33.875,34.89,34.246,35.577,33.347,34.658
33.863,34.899,34.375,35.564,33.348,34.616
33.852,34.902,34.52,35.546,33.361999999999995,34.574
33.841,34.898,34.678000000000004,35.525999999999996,33.391999999999996,34.533
33.830999999999996,34.889,34.846,35.504,33.439,34.492
33.823,34.874,35.023,35.483000000000004,33.503,34.451
33.815,34.856,35.203,35.461,33.583,34.41
33.808,34.834,35.385,35.44,33.678000000000004,34.369
33.802,34.806999999999995,35.565,35.418,33.786,34.329
33.794000000000004,34.777,35.74,35.394,33.905,34.291
33.785,34.745,35.908,35.367,34.034,34.255
33.774,34.711999999999996,36.066,35.336,34.169000000000004,34.221
33.760999999999996,34.679,36.214,35.301,34.31,34.189
33.747,34.646,36.348,35.262,34.455999999999996,34.157
33.731,34.616,36.47,35.223,34.604,34.128
33.713,34.586999999999996,36.578,35.183,34.753,34.099000000000004
33.692,34.56,36.673,35.146,34.9,34.071999999999996
33.669000000000004,34.537,36.754,35.11,35.043,34.046
33.641999999999996,34.516999999999996,36.821,35.078,35.181,34.021
33.611999999999995,34.5,36.874,35.05,35.311,33.995
33.58,34.485,36.912,35.025,35.434,33.969
33.544000000000004,34.472,36.936,35.003,35.548,33.945
33.505,34.458,36.948,34.984,35.654,33.921
33.465,34.444,36.949,34.965,35.751999999999995,33.9
33.423,34.429,36.941,34.945,35.841,33.882
33.379,34.412,36.926,34.924,35.922,33.864000000000004
33.336,34.393,36.906,34.9,35.994,33.847
33.294000000000004,34.373000000000005,36.883,34.875,36.056,33.83
33.255,34.353,36.857,34.849000000000004,36.109,33.811
33.218,34.332,36.83,34.823,36.152,33.792
33.184,34.312,36.802,34.799,36.187,33.772
33.153,34.292,36.773,34.778,36.216,33.75
33.125,34.273,36.744,34.759,36.238,33.726
33.099000000000004,34.253,36.715,34.743,36.255,33.701
33.075,34.234,36.685,34.731,36.268,33.676
33.051,34.214,36.655,34.721,36.277,33.652
33.025999999999996,34.194,36.622,34.713,36.281,33.632
33.0,34.174,36.588,34.707,36.283,33.616
32.973,34.154,36.55,34.702,36.281,33.607
32.944,34.133,36.51,34.696999999999996,36.277,33.607
32.913000000000004,34.114000000000004,36.467,34.692,36.27,33.62
32.88,34.095,36.42,34.687,36.262,33.646
32.846,34.077,36.369,34.681999999999995,36.253,33.689
32.812,34.059,36.316,34.678000000000004,36.242,33.748000000000005
32.778,34.043,36.259,34.674,36.23,33.825
32.745,34.027,36.2,34.672,36.217,33.917
32.713,34.01,36.139,34.671,36.203,34.025
32.683,33.994,36.079,34.671,36.19,34.147
32.654,33.978,36.018,34.672,36.176,34.284
32.626,33.961,35.958,34.671,36.162,34.434
32.599000000000004,33.945,35.897,34.67,36.147,34.596
32.574,33.929,35.835,34.668,36.13,34.768
32.552,33.915,35.773,34.663000000000004,36.111999999999995,34.946
32.532,33.900999999999996,35.713,34.657,36.091,35.128
32.514,33.888000000000005,35.654,34.65,36.07,35.311
32.499,33.876,35.598,34.643,36.048,35.492
32.486,33.864000000000004,35.545,34.635,36.027,35.668
32.476,33.85,35.496,34.626999999999995,36.007,35.836999999999996
32.467,33.836,35.451,34.621,35.989000000000004,35.996
32.46,33.819,35.41,34.615,35.972,36.143
32.454,33.8,35.374,34.609,35.958,36.278
32.448,33.78,35.343,34.603,35.944,36.398
32.442,33.758,35.318000000000005,34.596,35.93,36.505
32.435,33.738,35.298,34.586999999999996,35.916,36.596
32.426,33.722,35.284,34.577,35.899,36.673
32.417,33.71,35.275,34.564,35.879,36.736
32.406,33.705999999999996,35.27,34.551,35.857,36.787
32.394,33.711999999999996,35.268,34.537,35.830999999999996,36.827
32.381,33.731,35.269,34.525,35.803000000000004,36.857
32.368,33.764,35.273,34.514,35.773,36.876999999999995
32.356,33.815,35.278,34.506,35.742,36.889
32.345,33.884,35.287,34.503,35.709,36.891999999999996
32.335,33.972,35.298,34.503,35.677,36.889
32.329,34.079,35.31,34.507,35.644,36.879
32.325,34.204,35.324,34.512,35.61,36.863
32.324,34.346,35.336999999999996,34.519,35.577,36.84
32.326,34.504,35.35,34.524,35.545,36.812
32.33,34.674,35.36,34.527,35.515,36.78
32.335,34.852,35.367,34.525,35.486,36.744
32.341,35.035,35.372,34.519,35.46,36.705
32.348,35.219,35.373000000000005,34.509,35.436,36.666
32.355,35.4,35.371,34.496,35.415,36.626
32.363,35.576,35.365,34.48,35.398,36.586
32.373000000000005,35.742,35.356,34.463,35.385999999999996,36.545
32.385999999999996,35.898,35.343,34.445,35.38,36.503
32.402,36.041,35.328,34.429,35.378,36.461999999999996
32.424,36.169000000000004,35.31,34.413000000000004,35.381,36.421
32.454,36.281,35.291,34.396,35.39,36.381
32.495,36.378,35.27,34.379,35.404,36.342
32.548,36.459,35.249,34.36,35.422,36.303000000000004
32.618,36.524,35.229,34.338,35.444,36.264
32.707,36.574,35.209,34.313,35.469,36.226
32.817,36.61,35.189,34.285,35.496,36.188
32.948,36.632,35.17,34.253,35.524,36.15
33.1,36.643,35.15,34.218,35.55,36.111999999999995
33.274,36.643,35.131,34.18,35.571999999999996,36.071999999999996
33.466,36.635,35.111999999999995,34.141,35.589,36.032
33.675,36.619,35.094,34.103,35.6,35.993
33.897,36.597,35.078,34.068000000000005,35.604,35.953
34.129,36.571,35.065,34.036,35.603,35.914
34.365,36.542,35.052,34.008,35.595,35.875
34.6,36.51,35.041,33.983000000000004,35.580999999999996,35.836999999999996
34.83,36.477,35.03,33.961999999999996,35.563,35.799
35.05,36.443000000000005,35.02,33.943000000000005,35.54,35.763000000000005
35.255,36.408,35.009,33.925,35.513000000000005,35.728
35.442,36.374,34.998000000000005,33.909,35.482,35.695
35.607,36.341,34.986999999999995,33.894,35.448,35.665
35.749,36.308,34.975,33.879,35.411,35.635999999999996
35.867,36.275,34.961999999999996,33.863,35.372,35.61
35.961,36.241,34.948,33.847,35.33,35.585
36.031,36.205999999999996,34.931999999999995,33.830999999999996,35.288000000000004,35.563
36.079,36.169000000000004,34.915,33.814,35.245,35.542
36.104,36.131,34.895,33.797,35.203,35.523
36.11,36.091,34.873000000000005,33.78,35.163000000000004,35.506
36.099000000000004,36.049,34.848,33.762,35.126,35.49
36.074,36.003,34.82,33.744,35.093,35.477
36.037,35.955,34.79,33.723,35.065,35.467
35.992,35.903,34.758,33.702,35.041,35.459
35.942,35.848,34.725,33.681,35.02,35.453
35.89,35.79,34.692,33.662,35.001999999999995,35.451
35.838,35.731,34.661,33.646,34.986,35.449
35.788000000000004,35.671,34.631,33.634,34.971,35.448
35.741,35.61,34.605,33.626999999999995,34.957,35.448
35.699,35.548,34.58,33.626,34.944,35.446999999999996
35.661,35.486999999999995,34.558,33.634,34.93,35.446
35.626999999999995,35.428000000000004,34.538000000000004,33.650999999999996,34.916,35.444
35.596,35.37,34.518,33.679,34.900999999999996,35.441
35.567,35.316,34.5,33.718,34.883,35.438
35.538000000000004,35.265,34.481,33.769,34.864000000000004,35.435
35.506,35.219,34.461999999999996,33.83,34.843,35.431999999999995
35.471,35.177,34.442,33.902,34.821999999999996,35.427
35.43,35.14,34.421,33.984,34.801,35.422
35.383,35.108000000000004,34.4,34.075,34.781,35.415
35.329,35.080999999999996,34.379,34.174,34.764,35.407
35.269,35.059,34.358000000000004,34.278,34.748000000000005,35.399
35.202,35.042,34.338,34.387,34.734,35.391999999999996
35.129,35.029,34.317,34.497,34.719,35.385999999999996
35.053000000000004,35.021,34.296,34.605,34.703,35.381
34.973,35.016999999999996,34.273,34.709,34.685,35.376
34.893,35.015,34.251,34.806,34.664,35.37
34.813,35.015,34.23,34.895,34.64,35.364000000000004
34.736,35.016,34.209,34.974000000000004,34.614000000000004,35.357
34.663000000000004,35.019,34.19,35.043,34.585,35.351
34.595,35.022,34.173,35.101,34.553000000000004,35.344
34.533,35.027,34.159,35.148,34.518,35.336999999999996
34.476,35.032,34.148,35.184,34.481,35.329
34.425,35.038000000000004,34.143,35.211,34.441,35.319
34.38,35.045,34.145,35.23,34.4,35.308
34.34,35.054,34.155,35.243,34.359,35.296
34.305,35.064,34.175,35.25,34.318000000000005,35.282
34.274,35.075,34.205999999999996,35.253,34.277,35.266999999999996
34.246,35.086999999999996,34.25,35.253,34.238,35.249
34.221,35.101,34.31,35.25,34.201,35.23
34.196,35.115,34.385,35.243,34.167,35.209
34.17,35.129,34.477,35.234,34.135,35.188
34.144,35.141999999999996,34.586,35.223,34.106,35.167
34.118,35.153,34.711,35.208,34.080999999999996,35.145
34.09,35.16,34.852,35.192,34.06,35.123000000000005
34.061,35.165,35.006,35.174,34.046,35.1
34.032,35.165,35.172,35.156,34.04,35.077
34.001999999999995,35.162,35.348,35.139,34.043,35.052
33.972,35.155,35.529,35.124,34.059,35.025
33.941,35.145,35.715,35.111,34.089,34.996
33.911,35.13,35.9,35.098,34.133,34.964
33.882,35.111999999999995,36.082,35.088,34.192,34.931
33.855,35.09,36.259,35.078,34.268,34.897
33.83,35.066,36.429,35.068000000000005,34.358000000000004,34.861
33.806999999999995,35.041,36.589,35.058,34.463,34.825
33.787,35.014,36.736,35.046,34.580999999999996,34.788000000000004
33.769,34.986999999999995,36.871,35.03,34.711,34.75
33.755,34.96,36.992,35.010999999999996,34.848,34.711999999999996
33.745,34.933,37.097,34.99,34.992,34.673
33.739000000000004,34.907,37.187,34.967,35.141,34.637
33.736,34.883,37.262,34.943000000000005,35.291,34.603
33.736,34.86,37.321999999999996,34.918,35.442,34.573
33.741,34.838,37.368,34.895,35.592,34.546
33.747,34.815,37.402,34.871,35.738,34.522
33.756,34.793,37.424,34.848,35.879,34.5
33.766,34.769,37.436,34.826,36.013000000000005,34.479
33.775,34.745,37.437,34.804,36.137,34.46
33.784,34.719,37.43,34.784,36.25,34.443000000000005
33.79,34.692,37.414,34.764,36.352,34.426
33.794000000000004,34.663000000000004,37.391,34.743,36.442,34.411
33.794000000000004,34.632,37.361999999999995,34.723,36.52,34.396
33.79,34.6,37.328,34.704,36.586,34.381
33.781,34.566,37.288000000000004,34.686,36.64,34.364000000000004
33.766,34.531,37.243,34.671,36.683,34.346
33.747,34.495,37.195,34.658,36.716,34.327
33.724000000000004,34.458,37.143,34.647,36.741,34.306
33.696,34.419000000000004,37.086999999999996,34.639,36.757,34.284
33.664,34.381,37.03,34.633,36.766999999999996,34.262
33.629,34.341,36.971,34.63,36.772,34.243
33.592,34.302,36.912,34.626999999999995,36.772,34.228
33.553000000000004,34.264,36.855,34.624,36.768,34.219
33.513000000000005,34.228,36.799,34.62,36.76,34.219
33.473,34.193000000000005,36.746,34.616,36.749,34.229
33.433,34.16,36.695,34.611999999999995,36.735,34.251999999999995
33.393,34.132,36.647,34.609,36.72,34.29
33.354,34.108000000000004,36.6,34.606,36.704,34.343
33.315,34.09,36.555,34.604,36.688,34.413000000000004
33.277,34.076,36.51,34.605,36.673,34.501999999999995
33.239000000000004,34.067,36.465,34.608000000000004,36.658,34.609
33.202,34.06,36.42,34.613,36.644,34.734
33.167,34.056,36.372,34.62,36.629,34.874
33.134,34.054,36.321999999999996,34.629,36.613,35.03
33.102,34.052,36.27,34.638000000000005,36.596,35.198
33.073,34.05,36.215,34.647,36.576,35.376
33.045,34.048,36.159,34.655,36.554,35.56
33.018,34.043,36.103,34.661,36.53,35.748000000000005
32.99,34.036,36.045,34.665,36.501999999999995,35.939
32.963,34.027,35.989000000000004,34.668,36.472,36.129
32.934,34.015,35.934,34.671,36.44,36.318000000000005
32.905,34.001,35.881,34.673,36.406,36.501999999999995
32.875,33.984,35.832,34.676,36.37,36.679
32.844,33.965,35.788000000000004,34.679,36.334,36.848
32.813,33.942,35.75,34.681999999999995,36.297,37.006
32.782,33.919000000000004,35.717,34.686,36.259,37.153
32.751999999999995,33.895,35.69,34.69,36.222,37.289
32.722,33.873000000000005,35.669000000000004,34.692,36.184,37.411
32.692,33.855,35.652,34.693000000000005,36.146,37.52
32.662,33.842,35.64,34.69,36.108000000000004,37.617
32.632,33.838,35.631,34.681999999999995,36.07,37.702
32.602,33.846,35.625,34.67,36.033,37.775
32.571,33.867,35.622,34.655,35.997,37.835
32.54,33.905,35.624,34.639,35.961,37.883
32.509,33.961,35.629,34.621,35.926,37.919000000000004
32.479,34.036,35.637,34.604,35.89,37.943000000000005
32.448,34.13,35.649,34.588,35.853,37.957
32.419000000000004,34.243,35.664,34.573,35.815,37.961999999999996
32.39,34.373000000000005,35.681,34.558,35.775999999999996,37.958
32.364000000000004,34.519,35.699,34.544000000000004,35.736999999999995,37.946
32.339,34.678000000000004,35.718,34.53,35.699,37.928000000000004
32.316,34.848,35.736,34.514,35.663000000000004,37.903
32.294000000000004,35.024,35.751999999999995,34.495,35.629,37.872
32.274,35.203,35.765,34.474000000000004,35.599000000000004,37.836
32.255,35.382,35.774,34.45,35.571999999999996,37.794000000000004
32.238,35.558,35.78,34.425,35.549,37.749
32.222,35.729,35.781,34.4,35.528,37.699
32.207,35.891999999999996,35.78,34.375,35.51,37.646
32.192,36.047,35.775,34.35,35.493,37.59
32.178000000000004,36.19,35.769,34.327,35.479,37.534
32.164,36.321,35.759,34.306,35.468,37.477
32.148,36.439,35.747,34.288000000000004,35.46,37.422
32.13,36.544000000000004,35.734,34.272,35.455999999999996,37.369
32.11,36.635999999999996,35.719,34.257,35.455,37.318000000000005
32.088,36.716,35.701,34.242,35.459,37.269
32.066,36.784,35.683,34.227,35.466,37.223
32.043,36.842,35.662,34.209,35.476,37.178000000000004
32.022,36.889,35.64,34.19,35.489000000000004,37.134
32.004,36.925,35.618,34.169000000000004,35.501999999999995,37.09
31.991999999999997,36.952,35.595,34.146,35.515,37.045
31.988000000000003,36.97,35.571999999999996,34.122,35.525999999999996,37.0
31.995,36.979,35.548,34.098,35.533,36.955
32.016999999999996,36.98,35.524,34.071999999999996,35.536,36.908
32.054,36.975,35.499,34.047,35.534,36.861
32.11,36.963,35.474000000000004,34.023,35.528,36.813
32.186,36.946,35.45,34.001,35.518,36.766
32.282,36.925,35.425,33.979,35.504,36.719
32.399,36.899,35.402,33.959,35.486,36.675
32.536,36.87,35.38,33.938,35.465,36.631
32.692,36.836999999999996,35.359,33.918,35.44,36.588
32.863,36.802,35.339,33.897,35.413000000000004,36.545
33.048,36.765,35.318000000000005,33.878,35.382,36.501999999999995
33.241,36.726,35.296,33.86,35.349000000000004,36.46
33.441,36.686,35.273,33.843,35.314,36.419000000000004
33.641999999999996,36.645,35.248000000000005,33.83,35.278,36.381
33.842,36.603,35.222,33.819,35.242,36.345
34.036,36.56,35.195,33.809,35.205,36.313
34.221,36.515,35.168,33.802,35.169000000000004,36.285
34.393,36.469,35.139,33.795,35.134,36.26
34.551,36.422,35.111,33.79,35.098,36.238
34.693000000000005,36.372,35.083,33.785,35.063,36.219
34.817,36.319,35.054,33.781,35.027,36.203
34.923,36.265,35.025999999999996,33.778,34.992,36.19
35.012,36.208,34.998000000000005,33.778,34.958,36.179
35.085,36.148,34.971,33.781,34.926,36.171
35.141999999999996,36.088,34.945,33.79,34.895,36.167
35.187,36.025999999999996,34.92,33.806,34.867,36.164
35.219,35.963,34.896,33.829,34.841,36.163000000000004
35.239000000000004,35.900999999999996,34.872,33.86,34.816,36.162
35.249,35.84,34.849000000000004,33.9,34.792,36.162
35.25,35.782,34.825,33.946,34.768,36.163000000000004
35.244,35.727,34.8,34.001,34.743,36.164
35.233000000000004,35.676,34.773,34.062,34.72,36.167
35.217,35.629,34.746,34.13,34.696999999999996,36.169000000000004
35.199,35.586999999999996,34.717,34.205,34.676,36.169000000000004
35.179,35.55,34.688,34.285,34.657,36.167
35.157,35.518,34.659,34.371,34.641,36.163000000000004
35.134,35.49,34.631,34.463,34.628,36.157
35.109,35.466,34.603,34.559,34.618,36.147
35.083,35.444,34.575,34.659,34.61,36.134
35.055,35.425,34.547,34.762,34.603,36.119
35.025999999999996,35.406,34.52,34.865,34.597,36.101
34.994,35.388000000000005,34.493,34.967,34.59,36.08
34.961,35.37,34.466,35.066,34.579,36.058
34.925,35.352,34.441,35.16,34.565,36.034
34.888000000000005,35.334,34.417,35.247,34.546,36.008
34.851,35.316,34.394,35.326,34.522,35.981
34.815,35.299,34.372,35.396,34.494,35.955
34.779,35.282,34.352,35.455,34.461999999999996,35.928000000000004
34.744,35.266999999999996,34.336,35.504,34.427,35.902
34.711,35.251999999999995,34.327,35.542,34.389,35.876999999999995
34.679,35.24,34.327,35.571999999999996,34.348,35.852
34.647,35.229,34.339,35.592,34.306,35.828
34.616,35.219,34.365,35.605,34.262,35.805
34.584,35.21,34.407,35.611999999999995,34.217,35.782
34.551,35.203,34.467,35.614000000000004,34.171,35.76
34.515,35.196,34.545,35.611999999999995,34.128,35.738
34.478,35.191,34.641999999999996,35.607,34.086,35.715
34.438,35.187,34.758,35.599000000000004,34.049,35.69
34.395,35.184,34.891999999999996,35.586999999999996,34.015,35.663000000000004
34.351,35.183,35.043,35.573,33.986,35.635
34.305,35.183,35.208,35.556,33.961999999999996,35.605
34.259,35.183,35.385,35.535,33.942,35.574
34.213,35.181999999999995,35.571999999999996,35.512,33.927,35.543
34.167,35.18,35.765,35.486,33.917,35.512
34.12,35.176,35.961999999999996,35.458,33.912,35.48
34.075,35.171,36.158,35.428000000000004,33.915,35.446
34.033,35.162,36.351,35.399,33.925,35.41
33.993,35.150999999999996,36.537,35.37,33.944,35.374
33.957,35.135999999999996,36.714,35.343,33.973,35.338
33.926,35.119,36.879,35.319,34.013000000000005,35.303000000000004
33.900999999999996,35.099000000000004,37.029,35.296,34.064,35.268
33.881,35.077,37.165,35.275,34.126999999999995,35.233000000000004
33.867,35.053000000000004,37.285,35.255,34.202,35.199
33.859,35.028,37.389,35.236,34.289,35.164
33.855,35.001,37.477,35.216,34.387,35.131
33.856,34.972,37.55,35.195,34.496,35.097
33.861,34.941,37.607,35.17,34.616,35.063
33.869,34.908,37.649,35.141,34.744,35.03
33.881,34.874,37.677,35.109,34.88,34.997
33.895,34.838,37.693000000000005,35.074,35.023,34.964
33.911,34.802,37.698,35.037,35.171,34.931
33.93,34.764,37.693000000000005,34.999,35.321,34.899
33.951,34.725,37.681,34.961999999999996,35.472,34.868
33.972,34.686,37.663000000000004,34.928000000000004,35.622,34.836
33.995,34.647,37.64,34.896,35.769,34.805
34.016,34.61,37.611999999999995,34.869,35.912,34.774
34.036,34.574,37.579,34.848,36.049,34.743
34.054,34.539,37.542,34.832,36.178000000000004,34.713
34.07,34.506,37.499,34.821,36.298,34.685
34.082,34.476,37.453,34.812,36.408,34.659
34.091,34.448,37.404,34.806999999999995,36.507,34.635
34.096,34.424,37.352,34.802,36.595,34.615
34.097,34.403,37.297,34.798,36.671,34.597
34.093,34.385999999999996,37.242,34.792,36.736,34.580999999999996
34.085,34.371,37.185,34.784,36.789,34.567
34.074,34.359,37.128,34.775,36.830999999999996,34.553000000000004
34.06,34.349000000000004,37.071,34.765,36.861,34.538000000000004
34.044000000000004,34.341,37.015,34.754,36.882,34.521
34.027,34.334,36.96,34.744,36.894,34.501999999999995
34.009,34.327,36.906,34.735,36.9,34.482
33.992,34.319,36.853,34.728,36.900999999999996,34.46
33.976,34.31,36.801,34.722,36.897,34.436
33.963,34.299,36.749,34.716,36.888000000000005,34.41
33.953,34.287,36.698,34.711,36.876999999999995,34.382
33.946999999999996,34.274,36.647,34.705999999999996,36.861,34.356
33.944,34.259,36.595,34.701,36.843,34.334
33.944,34.243,36.541,34.695,36.821999999999996,34.319
33.946,34.226,36.486999999999995,34.689,36.799,34.313
33.949,34.207,36.43,34.681999999999995,36.775999999999996,34.321
33.951,34.186,36.373000000000005,34.675,36.751,34.343
33.952,34.163000000000004,36.315,34.667,36.726,34.383
33.952,34.138000000000005,36.257,34.661,36.701,34.443000000000005
33.948,34.11,36.201,34.654,36.675,34.524
33.942,34.080999999999996,36.146,34.648,36.649,34.626999999999995
33.933,34.05,36.094,34.641999999999996,36.622,34.75
33.919000000000004,34.018,36.045,34.635999999999996,36.595,34.891
33.900999999999996,33.985,36.001,34.628,36.566,35.048
33.876999999999995,33.953,35.961999999999996,34.62,36.534,35.219
33.848,33.921,35.927,34.611,36.5,35.402
33.815,33.891999999999996,35.896,34.601,36.461999999999996,35.595
33.779,33.865,35.868,34.591,36.42,35.795
33.742,33.841,35.844,34.58,36.376,36.0
33.705,33.821999999999996,35.824,34.57,36.33,36.205
33.668,33.809,35.806,34.559,36.284,36.408
33.632,33.804,35.792,34.549,36.239000000000004,36.607
33.599000000000004,33.808,35.782,34.54,36.196,36.797
33.569,33.823,35.777,34.531,36.155,36.975
33.543,33.851,35.775,34.522,36.116,37.141
33.521,33.893,35.775,34.513000000000005,36.078,37.292
33.503,33.951,35.775,34.503,36.042,37.427
33.489000000000004,34.027,35.775999999999996,34.493,36.006,37.546
33.479,34.121,35.775999999999996,34.481,35.97,37.648
33.471,34.234,35.778,34.468,35.934,37.733000000000004
33.467,34.365,35.779,34.454,35.899,37.799
33.465,34.513000000000005,35.779,34.439,35.863,37.848
33.467,34.676,35.779,34.425,35.826,37.883
33.469,34.853,35.778,34.412,35.791,37.904
33.473,35.04,35.775,34.400999999999996,35.756,37.915
33.475,35.234,35.769,34.391,35.723,37.917
33.475,35.431999999999995,35.76,34.382,35.691,37.912
33.472,35.631,35.749,34.374,35.661,37.9
33.463,35.829,35.735,34.367,35.632,37.882
33.449,36.021,35.719,34.358000000000004,35.605,37.858000000000004
33.428000000000004,36.205999999999996,35.702,34.348,35.58,37.83
33.400999999999996,36.381,35.684,34.336999999999996,35.556999999999995,37.797
33.368,36.543,35.666,34.324,35.536,37.76
33.329,36.691,35.648,34.31,35.518,37.719
33.288000000000004,36.824,35.631,34.297,35.504,37.676
33.244,36.94,35.614000000000004,34.285,35.495,37.63
33.2,37.04,35.6,34.273,35.49,37.582
33.158,37.123000000000005,35.586999999999996,34.263000000000005,35.491,37.531
33.119,37.19,35.576,34.254,35.497,37.478
33.085,37.242,35.566,34.245,35.507,37.424
33.056,37.28,35.558,34.236999999999995,35.521,37.371
33.035,37.306,35.549,34.228,35.539,37.317
33.019,37.319,35.54,34.218,35.559,37.264
33.010999999999996,37.323,35.53,34.207,35.58,37.211999999999996
33.008,37.319,35.519,34.193000000000005,35.602,37.16
33.012,37.306999999999995,35.505,34.179,35.622,37.108000000000004
33.021,37.289,35.488,34.163000000000004,35.639,37.058
33.036,37.264,35.47,34.148,35.652,37.009
33.056,37.235,35.449,34.134,35.659,36.959
33.083,37.201,35.426,34.121,35.659,36.91
33.117,37.163000000000004,35.400999999999996,34.109,35.652,36.86
33.16,37.123000000000005,35.375,34.098,35.637,36.81
33.211999999999996,37.080999999999996,35.347,34.088,35.615,36.760999999999996
33.274,37.036,35.318000000000005,34.077,35.586,36.711999999999996
33.346,36.989000000000004,35.288000000000004,34.065,35.551,36.664
33.43,36.94,35.259,34.051,35.51,36.617
33.525999999999996,36.888000000000005,35.229,34.035,35.464,36.571999999999996
33.633,36.835,35.2,34.016999999999996,35.413000000000004,36.529
33.751,36.779,35.17,33.996,35.358000000000004,36.491
33.88,36.72,35.139,33.973,35.3,36.455999999999996
34.019,36.659,35.108000000000004,33.95,35.239000000000004,36.426
34.167,36.597,35.075,33.928000000000004,35.177,36.399
34.321999999999996,36.533,35.043,33.906,35.115,36.374
34.483000000000004,36.469,35.01,33.885999999999996,35.055,36.352
34.648,36.406,34.977,33.869,34.999,36.330999999999996
34.814,36.343,34.946,33.856,34.946,36.312
34.977,36.283,34.915,33.847,34.9,36.293
35.135999999999996,36.224000000000004,34.885,33.844,34.859,36.275
35.288000000000004,36.169000000000004,34.856,33.845,34.825,36.257
35.431,36.117,34.829,33.853,34.798,36.239000000000004
35.562,36.068000000000005,34.802,33.868,34.777,36.223
35.68,36.022,34.777,33.891999999999996,34.763000000000005,36.209
35.784,35.98,34.751999999999995,33.926,34.753,36.195
35.873000000000005,35.94,34.728,33.972,34.748000000000005,36.183
35.945,35.902,34.705,34.032,34.745,36.17
36.001,35.866,34.683,34.105,34.744,36.157
36.039,35.832,34.661,34.192,34.742,36.146
36.06,35.8,34.64,34.292,34.739000000000004,36.135999999999996
36.064,35.77,34.62,34.402,34.734,36.128
36.054,35.741,34.6,34.522,34.725,36.121
36.031,35.713,34.579,34.648,34.711999999999996,36.116
35.997,35.687,34.558,34.778,34.693000000000005,36.111
35.955,35.66,34.534,34.91,34.669000000000004,36.107
35.907,35.634,34.508,35.042,34.639,36.105
35.855,35.607,34.48,35.172,34.605,36.102
35.802,35.58,34.451,35.299,34.568000000000005,36.1
35.749,35.554,34.422,35.423,34.529,36.097
35.698,35.529,34.391999999999996,35.542,34.489000000000004,36.093
35.65,35.505,34.364000000000004,35.655,34.448,36.088
35.605,35.485,34.338,35.763000000000005,34.406,36.082
35.563,35.467,34.318000000000005,35.864000000000004,34.361999999999995,36.073
35.525,35.454,34.306999999999995,35.958,34.317,36.062
35.49,35.445,34.306999999999995,36.044000000000004,34.27,36.048
35.455999999999996,35.441,34.32,36.12,34.222,36.032
35.423,35.441,34.348,36.184,34.172,36.014
35.39,35.444,34.391999999999996,36.236,34.122,35.994
35.355,35.45,34.453,36.275,34.07,35.974000000000004
35.317,35.458,34.531,36.302,34.019,35.954
35.275,35.468,34.626999999999995,36.318000000000005,33.968,35.933
35.229,35.479,34.742,36.323,33.917,35.912
35.178000000000004,35.491,34.872,36.32,33.866,35.891
35.122,35.503,35.016999999999996,36.31,33.817,35.868
35.061,35.514,35.175,36.295,33.77,35.843
34.997,35.525,35.342,36.277,33.727,35.816
34.931,35.534,35.516999999999996,36.257,33.688,35.785
34.864000000000004,35.541,35.698,36.236999999999995,33.654,35.751
34.798,35.545,35.883,36.216,33.626,35.715
34.734,35.545,36.071,36.195,33.604,35.679
34.672,35.542,36.259,36.173,33.588,35.641999999999996
34.613,35.534,36.445,36.152,33.576,35.603
34.559,35.522,36.626999999999995,36.13,33.571999999999996,35.563
34.509,35.506,36.801,36.107,33.574,35.522
34.466,35.485,36.966,36.083,33.585,35.481
34.428000000000004,35.46,37.119,36.058,33.606,35.441
34.395,35.431999999999995,37.26,36.031,33.638000000000005,35.402
34.369,35.402,37.387,36.001999999999995,33.684,35.365
34.347,35.37,37.501,35.974000000000004,33.742,35.328
34.33,35.338,37.6,35.945,33.814,35.292
34.318000000000005,35.306,37.684,35.917,33.899,35.257
34.308,35.275,37.753,35.889,33.996,35.223
34.303000000000004,35.246,37.806999999999995,35.863,34.106,35.19
34.3,35.22,37.846,35.839,34.227,35.158
34.301,35.196,37.872,35.816,34.359,35.126
34.305,35.175,37.885,35.796,34.5,35.094
34.311,35.156,37.888000000000005,35.779,34.65,35.062
34.32,35.14,37.88,35.762,34.806999999999995,35.03
34.332,35.126999999999995,37.864000000000004,35.747,34.969,34.999
34.345,35.115,37.841,35.731,35.133,34.968
34.359,35.104,37.812,35.715,35.298,34.936
34.373000000000005,35.094,37.779,35.698,35.461,34.903
34.385999999999996,35.085,37.742,35.679,35.621,34.871
34.398,35.075,37.702,35.658,35.777,34.838
34.409,35.065,37.659,35.635,35.925,34.806999999999995
34.417,35.052,37.614000000000004,35.611,36.066,34.775999999999996
34.424,35.036,37.565,35.586,36.196999999999996,34.747
34.429,35.018,37.514,35.561,36.316,34.719
34.433,34.997,37.461999999999996,35.536,36.424,34.691
34.436,34.973,37.407,35.512,36.519,34.665
34.438,34.946,37.351,35.49,36.601,34.638000000000005
34.439,34.918,37.294000000000004,35.471,36.668,34.611999999999995
34.44,34.889,37.235,35.454,36.722,34.585
34.439,34.86,37.176,35.439,36.762,34.556999999999995
34.438,34.832,37.116,35.426,36.789,34.528
34.436,34.805,37.055,35.416,36.804,34.499
34.431999999999995,34.78,36.994,35.408,36.809,34.47
34.427,34.757,36.933,35.403,36.806,34.44
34.419000000000004,34.736,36.873000000000005,35.402,36.796,34.409
34.409,34.717,36.812,35.403,36.78,34.376
34.397,34.699,36.751999999999995,35.407,36.760999999999996,34.341
34.382,34.684,36.69,35.414,36.738,34.304
34.366,34.67,36.628,35.424,36.711999999999996,34.266999999999996
34.348,34.656,36.565,35.436,36.683,34.23
34.328,34.643,36.5,35.45,36.652,34.195
34.306,34.628,36.437,35.465,36.617,34.164
34.283,34.613,36.376,35.48,36.58,34.138000000000005
34.259,34.595,36.318000000000005,35.494,36.541,34.122
34.233000000000004,34.575,36.264,35.506,36.5,34.119
34.205999999999996,34.553000000000004,36.215,35.515,36.458,34.131
34.177,34.529,36.171,35.52,36.414,34.16
34.145,34.503,36.134,35.52,36.37,34.207
34.11,34.476,36.102,35.516,36.327,34.273
34.074,34.449,36.076,35.508,36.283,34.357
34.035,34.422,36.055,35.497,36.239000000000004,34.459
33.995,34.397,36.038000000000004,35.485,36.194,34.58
33.954,34.375,36.024,35.473,36.148,34.718
33.912,34.358000000000004,36.012,35.461,36.099000000000004,34.872
33.87,34.348,36.001,35.451,36.049,35.038000000000004
33.828,34.347,35.992,35.442,35.996,35.214
33.787,34.357,35.984,35.435,35.94,35.396
33.747,34.38,35.975,35.429,35.883,35.582
33.709,34.418,35.967,35.423,35.826,35.768
33.674,34.472,35.957,35.417,35.768,35.955
33.641999999999996,34.545,35.946999999999996,35.409,35.711,36.138000000000005
33.611999999999995,34.637,35.935,35.399,35.656,36.317
33.585,34.747,35.924,35.387,35.602,36.489000000000004
33.56,34.876,35.913000000000004,35.374,35.55,36.652
33.537,35.021,35.903,35.359,35.499,36.804
33.515,35.181,35.893,35.343,35.45,36.942
33.494,35.353,35.884,35.328,35.403,37.064
33.475,35.535,35.874,35.314,35.36,37.169000000000004
33.458,35.723,35.865,35.301,35.32,37.257
33.443000000000005,35.915,35.856,35.29,35.283,37.33
33.431,36.108000000000004,35.847,35.28,35.251,37.385
33.421,36.299,35.838,35.27,35.223,37.425
33.412,36.485,35.830999999999996,35.259,35.199,37.448
33.407,36.663000000000004,35.824,35.247,35.18,37.457
33.403,36.83,35.818000000000005,35.233000000000004,35.165,37.454
33.400999999999996,36.986,35.813,35.216,35.155,37.44
33.4,37.129,35.81,35.196999999999996,35.15,37.417
33.399,37.258,35.806999999999995,35.174,35.148,37.385999999999996
33.397,37.373000000000005,35.806,35.148,35.149,37.349000000000004
33.395,37.475,35.806999999999995,35.122,35.153,37.306
33.391,37.563,35.806999999999995,35.095,35.158,37.259
33.384,37.638000000000005,35.805,35.068000000000005,35.163000000000004,37.21
33.376,37.701,35.8,35.042,35.169000000000004,37.158
33.365,37.753,35.792,35.016999999999996,35.173,37.105
33.353,37.793,35.781,34.994,35.175,37.049
33.339,37.824,35.764,34.971,35.175,36.992
33.324,37.845,35.744,34.946999999999996,35.171,36.934
33.306999999999995,37.857,35.719,34.922,35.163000000000004,36.875
33.289,37.861,35.692,34.896,35.153,36.815
33.271,37.856,35.662,34.868,35.139,36.756
33.254,37.844,35.63,34.839,35.123000000000005,36.696
33.239000000000004,37.825,35.597,34.809,35.106,36.635999999999996
33.225,37.799,35.562,34.78,35.089,36.576
33.213,37.766999999999996,35.528,34.751,35.073,36.516
33.203,37.73,35.493,34.724000000000004,35.056999999999995,36.455
33.196,37.69,35.458,34.7,35.041,36.395
33.191,37.645,35.423,34.68,35.025,36.334
33.19,37.598,35.388000000000005,34.663000000000004,35.007,36.273
33.194,37.548,35.353,34.648,34.988,36.211999999999996
33.203,37.496,35.317,34.634,34.967,36.150999999999996
33.219,37.443000000000005,35.282,34.619,34.944,36.09
33.244,37.39,35.245,34.602,34.92,36.03
33.279,37.336,35.209,34.580999999999996,34.894,35.971
33.326,37.282,35.173,34.555,34.867,35.913000000000004
33.385999999999996,37.228,35.137,34.525,34.839,35.859
33.461999999999996,37.173,35.103,34.49,34.81,35.809
33.553000000000004,37.117,35.071,34.451,34.781,35.762
33.66,37.06,35.04,34.409,34.75,35.719
33.783,37.003,35.010999999999996,34.366,34.72,35.68
33.921,36.946,34.983000000000004,34.325,34.691,35.644
34.071,36.889,34.955999999999996,34.286,34.661,35.611999999999995
34.234,36.832,34.931,34.251,34.633,35.584
34.406,36.775,34.906,34.222,34.606,35.558
34.586,36.718,34.883,34.2,34.580999999999996,35.535
34.77,36.662,34.86,34.185,34.558,35.513000000000005
34.954,36.608000000000004,34.836999999999996,34.178000000000004,34.536,35.492
35.135999999999996,36.554,34.814,34.181,34.515,35.474000000000004
35.312,36.501999999999995,34.79,34.196,34.494,35.458
35.479,36.452,34.766,34.223,34.474000000000004,35.446
35.634,36.405,34.743,34.264,34.454,35.436
35.775,36.361,34.719,34.32,34.434,35.428000000000004
35.9,36.32,34.695,34.393,34.413000000000004,35.42
36.008,36.281,34.671,34.483000000000004,34.39,35.412
36.099000000000004,36.247,34.647,34.588,34.367,35.403
36.174,36.216,34.623000000000005,34.707,34.343,35.393
36.234,36.188,34.598,34.838,34.316,35.382
36.28,36.164,34.573,34.977,34.286,35.371
36.313,36.143,34.546,35.121,34.253,35.36
36.334,36.124,34.518,35.266999999999996,34.216,35.348
36.344,36.107,34.486999999999995,35.411,34.173,35.335
36.345,36.091,34.455999999999996,35.55,34.126,35.324
36.339,36.077,34.423,35.681999999999995,34.073,35.312
36.325,36.063,34.389,35.803000000000004,34.016999999999996,35.301
36.306,36.05,34.354,35.914,33.958,35.29
36.281,36.037,34.32,36.014,33.897,35.28
36.251999999999995,36.023,34.287,36.104,33.836,35.27
36.219,36.01,34.255,36.184,33.777,35.262
36.181999999999995,35.996,34.224000000000004,36.254,33.722,35.254
36.144,35.981,34.196,36.314,33.671,35.246
36.104,35.965,34.174,36.366,33.624,35.236999999999995
36.065,35.948,34.158,36.409,33.58,35.226
36.025999999999996,35.929,34.150999999999996,36.443000000000005,33.542,35.214
35.989000000000004,35.911,34.157,36.468,33.508,35.2
35.954,35.891,34.178000000000004,36.483000000000004,33.48,35.185
35.921,35.871,34.216,36.489000000000004,33.457,35.168
35.891999999999996,35.85,34.275,36.486999999999995,33.438,35.149
35.864000000000004,35.829,34.355,36.478,33.425,35.129
35.838,35.808,34.457,36.461999999999996,33.416,35.107
35.813,35.786,34.582,36.442,33.411,35.086
35.787,35.765,34.728,36.42,33.41,35.065
35.759,35.745,34.895,36.398,33.415,35.044000000000004
35.727,35.726,35.08,36.376,33.424,35.023
35.693000000000005,35.708,35.281,36.357,33.44,35.001999999999995
35.654,35.689,35.494,36.339,33.463,34.98
35.611,35.671,35.715,36.323,33.495,34.957
35.564,35.650999999999996,35.942,36.306,33.538000000000004,34.935
35.513000000000005,35.63,36.172,36.288000000000004,33.592,34.912
35.461,35.607,36.4,36.266999999999996,33.658,34.887
35.407,35.58,36.624,36.242,33.734,34.861999999999995
35.354,35.55,36.841,36.213,33.82,34.835
35.304,35.515,37.049,36.18,33.915,34.806999999999995
35.257,35.478,37.244,36.144,34.02,34.777
35.215,35.437,37.426,36.105,34.134,34.746
35.178000000000004,35.393,37.592,36.067,34.256,34.714
35.147,35.347,37.742,36.029,34.387,34.68
35.122,35.3,37.875,35.993,34.524,34.645
35.103,35.251,37.991,35.96,34.667,34.608000000000004
35.09,35.202,38.09,35.93,34.814,34.571
35.080999999999996,35.153,38.17,35.902,34.961999999999996,34.533
35.076,35.105,38.232,35.876,35.111,34.495
35.071999999999996,35.058,38.277,35.85,35.258,34.459
35.069,35.015,38.306999999999995,35.823,35.400999999999996,34.425
35.066,34.975,38.321999999999996,35.795,35.54,34.393
35.061,34.939,38.325,35.766,35.672,34.361999999999995
35.054,34.907,38.316,35.735,35.797,34.333
35.045,34.879,38.299,35.702,35.912,34.306
35.033,34.856,38.274,35.668,36.016999999999996,34.279
35.02,34.836,38.243,35.632,36.111,34.254
35.004,34.818000000000005,38.207,35.596,36.193000000000005,34.231
34.988,34.803000000000004,38.167,35.559,36.264,34.208
34.97,34.788000000000004,38.124,35.522,36.324,34.188
34.952,34.773,38.077,35.486,36.373000000000005,34.169000000000004
34.933,34.757,38.028,35.451,36.411,34.15
34.915,34.739000000000004,37.975,35.417,36.44,34.129
34.899,34.719,37.92,35.385,36.458,34.106
34.885,34.696999999999996,37.86,35.355,36.467,34.08
34.875,34.672,37.796,35.327,36.466,34.052
34.867,34.645,37.728,35.302,36.458,34.022
34.864000000000004,34.617,37.658,35.281,36.441,33.99
34.861999999999995,34.586,37.585,35.265,36.416,33.957
34.861999999999995,34.554,37.51,35.255,36.385,33.921
34.863,34.52,37.433,35.253,36.346,33.885
34.864000000000004,34.486,37.356,35.257,36.301,33.847
34.863,34.451,37.277,35.27,36.251,33.81
34.859,34.418,37.199,35.288000000000004,36.196999999999996,33.774
34.852,34.385999999999996,37.121,35.312,36.14,33.736999999999995
34.842,34.356,37.045,35.339,36.082,33.699
34.827,34.327,36.97,35.367,36.021,33.659
34.809,34.3,36.899,35.396,35.96,33.618
34.787,34.275,36.832,35.422,35.899,33.577
34.763000000000005,34.25,36.768,35.443000000000005,35.838,33.536
34.736,34.226,36.708,35.46,35.775999999999996,33.499
34.709,34.202,36.650999999999996,35.471,35.714,33.467
34.681,34.178000000000004,36.598,35.475,35.652,33.442
34.654,34.154,36.548,35.474000000000004,35.589,33.425
34.628,34.131,36.501,35.468,35.525,33.419000000000004
34.603,34.108000000000004,36.457,35.458,35.461999999999996,33.427
34.580999999999996,34.086,36.415,35.444,35.398,33.45
34.561,34.067,36.376,35.428000000000004,35.335,33.49
34.543,34.051,36.339,35.411,35.273,33.546
34.527,34.042,36.305,35.391999999999996,35.213,33.62
34.513000000000005,34.04,36.274,35.371,35.156,33.711
34.498000000000005,34.048,36.246,35.349000000000004,35.103,33.818000000000005
34.48,34.068000000000005,36.22,35.324,35.054,33.942
34.459,34.102,36.196,35.297,35.009,34.08
34.433,34.15,36.176,35.269,34.968,34.231
34.400999999999996,34.215,36.159,35.239000000000004,34.931,34.391999999999996
34.363,34.298,36.145,35.207,34.896,34.561
34.319,34.398,36.135,35.176,34.864000000000004,34.735
34.27,34.515,36.126,35.145,34.836999999999996,34.912
34.218,34.648,36.119,35.117,34.814,35.088
34.163000000000004,34.796,36.113,35.092,34.796,35.262
34.106,34.955999999999996,36.108000000000004,35.071,34.783,35.43
34.048,35.125,36.103,35.054,34.775,35.59
33.99,35.302,36.098,35.041,34.773,35.738
33.931999999999995,35.481,36.096,35.031,34.775,35.873000000000005
33.874,35.66,36.095,35.024,34.781,35.992
33.817,35.836,36.094,35.019,34.791,36.094
33.760999999999996,36.006,36.094,35.014,34.804,36.177
33.707,36.167,36.095,35.009,34.821,36.242
33.656,36.318000000000005,36.096,35.001999999999995,34.839,36.291
33.606,36.455999999999996,36.097,34.992,34.857,36.324
33.56,36.582,36.098,34.981,34.874,36.344
33.516,36.693000000000005,36.099000000000004,34.967,34.889,36.353
33.477,36.791,36.099000000000004,34.951,34.899,36.351
33.442,36.875,36.098,34.931999999999995,34.904,36.34
33.412,36.946,36.095,34.912,34.904,36.321999999999996
33.39,37.004,36.089,34.89,34.899,36.299
33.375,37.048,36.080999999999996,34.867,34.889,36.271
33.367,37.080999999999996,36.069,34.845,34.876,36.239000000000004
33.368,37.101,36.055,34.823,34.859,36.202
33.376,37.111,36.037,34.8,34.841,36.162
33.391999999999996,37.109,36.016999999999996,34.775999999999996,34.819,36.118
33.415,37.097,35.995,34.75,34.796,36.071
33.445,37.076,35.969,34.722,34.769,36.021
33.48,37.047,35.941,34.691,34.741,35.968
33.518,37.010999999999996,35.91,34.658,34.711,35.914
33.558,36.969,35.879,34.624,34.679,35.858000000000004
33.596,36.923,35.847,34.586999999999996,34.645,35.799
33.633,36.873000000000005,35.815,34.55,34.611,35.739000000000004
33.664,36.821,35.783,34.512,34.577,35.678000000000004
33.689,36.765,35.751,34.474000000000004,34.544000000000004,35.615
33.707,36.709,35.718,34.438,34.510999999999996,35.552
33.715,36.65,35.685,34.403,34.481,35.489000000000004
33.714,36.59,35.652,34.37,34.453,35.426
33.702,36.529,35.62,34.34,34.428000000000004,35.364000000000004
33.681,36.468,35.59,34.312,34.406,35.304
33.650999999999996,36.406,35.562,34.286,34.387,35.246
33.613,36.345,35.536,34.262,34.37,35.19
33.57,36.283,35.512,34.238,34.354,35.137
33.524,36.222,35.49,34.215,34.34,35.086
33.476,36.161,35.468,34.193000000000005,34.327,35.039
33.427,36.101,35.446999999999996,34.173,34.316,34.996
33.38,36.041,35.426,34.153,34.305,34.958
33.336,35.982,35.403,34.135,34.294000000000004,34.922
33.297,35.924,35.379,34.119,34.284,34.888000000000005
33.264,35.867,35.353,34.107,34.272,34.854
33.24,35.81,35.324,34.097,34.26,34.821
33.227,35.754,35.293,34.093,34.246,34.788000000000004
33.227,35.699,35.26,34.097,34.23,34.755
33.24,35.645,35.225,34.108000000000004,34.213,34.722
33.268,35.592,35.19,34.13,34.194,34.691
33.312,35.54,35.154,34.163000000000004,34.173,34.66
33.374,35.491,35.118,34.21,34.150999999999996,34.631
33.452,35.443000000000005,35.083,34.271,34.129,34.604
33.546,35.397,35.049,34.348,34.105,34.58
33.655,35.353,35.015,34.442,34.08,34.56
33.778,35.312,34.983000000000004,34.55,34.052,34.544000000000004
33.912,35.274,34.951,34.674,34.02,34.532
34.055,35.24,34.92,34.811,33.984,34.522
34.204,35.208,34.889,34.958,33.945,34.515
34.358000000000004,35.181,34.858000000000004,35.113,33.900999999999996,34.51
34.512,35.158,34.826,35.274,33.853,34.508
34.665,35.14,34.794000000000004,35.437,33.802,34.507
34.814,35.126999999999995,34.760999999999996,35.6,33.75,34.508
34.955999999999996,35.12,34.729,35.762,33.698,34.51
35.09,35.119,34.696,35.921,33.647,34.513000000000005
35.214,35.123000000000005,34.663000000000004,36.075,33.598,34.516999999999996
35.327,35.132,34.63,36.222,33.553000000000004,34.521
35.427,35.143,34.596,36.363,33.512,34.525
35.515,35.156,34.563,36.494,33.478,34.53
35.589,35.17,34.53,36.616,33.449,34.534
35.650999999999996,35.184,34.497,36.728,33.428000000000004,34.538000000000004
35.701,35.196999999999996,34.464,36.827,33.412,34.542
35.738,35.208,34.431999999999995,36.913000000000004,33.403,34.546
35.762,35.217,34.4,36.985,33.398,34.549
35.773,35.222,34.368,37.044000000000004,33.396,34.551
35.771,35.222,34.338,37.088,33.397,34.55
35.757,35.219,34.309,37.117,33.399,34.547
35.733000000000004,35.211,34.284,37.133,33.402,34.541
35.698,35.199,34.264,37.135,33.408,34.532
35.655,35.181999999999995,34.251,37.125,33.417,34.521
35.605,35.162,34.248000000000005,37.103,33.431999999999995,34.507
35.548,35.138000000000005,34.257,37.07,33.452,34.492
35.488,35.111999999999995,34.281,37.03,33.481,34.476
35.425,35.083,34.321999999999996,36.982,33.519,34.459
35.36,35.052,34.382,36.93,33.569,34.443000000000005
35.294000000000004,35.021,34.461,36.876999999999995,33.631,34.427
35.229,34.989000000000004,34.561,36.824,33.707,34.411
35.164,34.958,34.681,36.773,33.798,34.394
35.099000000000004,34.928000000000004,34.821,36.726,33.905,34.376
35.036,34.899,34.98,36.683,34.027,34.356
34.974000000000004,34.872,35.159,36.644,34.162,34.336
34.914,34.847,35.354,36.607,34.31,34.315
34.857,34.825,35.563,36.571999999999996,34.468,34.294000000000004
34.801,34.804,35.785,36.538000000000004,34.633,34.274
34.747,34.785,36.015,36.501999999999995,34.803000000000004,34.253
34.696,34.766999999999996,36.249,36.463,34.975,34.232
34.647,34.749,36.484,36.421,35.147,34.211999999999996
34.599000000000004,34.73,36.716,36.374,35.319,34.192
34.552,34.711,36.943000000000005,36.324,35.489000000000004,34.173
34.507,34.69,37.161,36.27,35.656,34.155
34.461999999999996,34.667,37.368,36.216,35.821999999999996,34.135999999999996
34.418,34.643,37.562,36.161,35.983000000000004,34.116
34.376,34.616,37.739000000000004,36.109,36.14,34.095
34.336,34.588,37.898,36.058,36.29,34.073
34.297,34.558,38.039,36.010999999999996,36.431999999999995,34.05
34.26,34.527,38.161,35.968,36.564,34.025999999999996
34.224000000000004,34.495,38.265,35.927,36.685,34.001999999999995
34.188,34.461999999999996,38.351,35.888000000000005,36.793,33.977
34.155,34.431,38.42,35.849000000000004,36.885,33.95
34.122,34.400999999999996,38.473,35.81,36.961,33.92
34.092,34.372,38.510999999999996,35.771,37.021,33.889
34.064,34.344,38.535,35.731,37.064,33.858000000000004
34.038000000000004,34.319,38.547,35.691,37.092,33.826
34.014,34.296,38.546,35.653,37.108000000000004,33.794000000000004
33.991,34.275,38.536,35.617,37.111,33.763000000000005
33.971,34.257,38.516,35.583,37.104,33.732
33.952,34.241,38.49,35.554,37.089,33.702
33.935,34.225,38.455999999999996,35.529,37.065,33.673
33.921,34.21,38.416,35.510999999999996,37.033,33.647
33.909,34.196,38.371,35.497,36.995,33.621
33.900999999999996,34.18,38.32,35.489000000000004,36.951,33.598
33.896,34.165,38.265,35.486,36.902,33.574
33.895,34.148,38.204,35.485,36.848,33.551
33.897,34.13,38.139,35.486,36.792,33.529
33.902,34.11,38.07,35.489000000000004,36.732,33.509
33.908,34.088,37.997,35.493,36.672,33.489000000000004
33.915,34.065,37.922,35.496,36.61,33.471
33.922,34.04,37.846,35.5,36.547,33.452
33.928000000000004,34.014,37.77,35.505,36.482,33.433
33.933,33.986999999999995,37.695,35.509,36.416,33.413000000000004
33.938,33.959,37.622,35.515,36.347,33.391
33.943000000000005,33.931,37.55,35.521,36.275,33.367
33.95,33.902,37.481,35.528,36.2,33.342
33.959,33.875,37.415,35.534,36.123000000000005,33.316
33.97,33.849000000000004,37.35,35.538000000000004,36.044000000000004,33.291
33.985,33.825,37.287,35.54,35.964,33.268
34.003,33.804,37.224000000000004,35.538000000000004,35.885,33.25
34.024,33.787,37.162,35.533,35.809,33.239000000000004
34.047,33.774,37.1,35.525,35.735,33.236999999999995
34.071999999999996,33.766999999999996,37.036,35.513000000000005,35.665,33.246
34.098,33.766999999999996,36.97,35.499,35.599000000000004,33.269
34.122,33.775,36.902,35.483000000000004,35.535,33.305
34.143,33.795,36.832,35.467,35.476,33.356
34.16,33.828,36.762,35.451,35.42,33.422
34.172,33.875,36.692,35.436,35.368,33.501999999999995
34.18,33.938,36.622,35.421,35.321999999999996,33.598
34.183,34.018,36.555,35.407,35.282,33.708
34.183,34.115,36.491,35.393,35.248000000000005,33.830999999999996
34.178000000000004,34.23,36.433,35.378,35.22,33.966
34.171,34.361,36.38,35.364000000000004,35.196999999999996,34.111
34.161,34.506,36.335,35.348,35.18,34.263000000000005
34.148,34.662,36.297,35.330999999999996,35.167,34.419000000000004
34.134,34.828,36.266,35.312,35.157,34.575
34.118,35.0,36.241,35.291,35.15,34.727
34.103,35.174,36.221,35.266999999999996,35.146,34.874
34.086,35.348,36.205999999999996,35.243,35.145,35.015
34.07,35.519,36.195,35.219,35.147,35.15
34.054,35.685,36.188,35.196,35.152,35.275999999999996
34.038000000000004,35.842,36.181999999999995,35.175,35.16,35.394
34.022,35.989000000000004,36.178000000000004,35.156,35.169000000000004,35.501999999999995
34.005,36.125,36.175,35.138000000000005,35.178000000000004,35.599000000000004
33.986999999999995,36.248000000000005,36.173,35.122,35.186,35.686
33.967,36.358000000000004,36.172,35.108000000000004,35.192,35.762
33.946999999999996,36.455999999999996,36.172,35.094,35.196,35.827
33.925,36.542,36.171,35.080999999999996,35.196999999999996,35.882
33.902,36.616,36.17,35.067,35.195,35.926
33.878,36.68,36.168,35.052,35.191,35.959
33.854,36.735,36.164,35.035,35.184,35.983000000000004
33.830999999999996,36.782,36.16,35.016999999999996,35.175,35.998000000000005
33.81,36.82,36.155,34.997,35.163000000000004,36.004
33.79,36.853,36.149,34.977,35.150999999999996,36.003
33.773,36.879,36.143,34.957,35.135999999999996,35.994
33.758,36.9,36.135,34.937,35.12,35.979
33.746,36.916,36.126999999999995,34.918,35.102,35.959
33.736999999999995,36.926,36.118,34.9,35.083,35.934
33.73,36.931,36.107,34.883,35.061,35.905
33.727,36.929,36.094,34.866,35.038000000000004,35.873000000000005
33.727,36.921,36.08,34.849000000000004,35.014,35.836
33.731,36.905,36.064,34.832,34.991,35.797
33.736999999999995,36.882,36.048,34.815,34.968,35.755
33.746,36.851,36.03,34.797,34.946,35.711
33.756,36.813,36.009,34.777,34.927,35.665
33.768,36.768,35.986999999999995,34.756,34.911,35.618
33.781,36.718,35.963,34.733000000000004,34.898,35.569
33.796,36.662,35.937,34.707,34.888000000000005,35.519
33.812,36.602,35.911,34.678000000000004,34.881,35.468
33.829,36.539,35.883,34.647,34.876,35.417
33.845,36.473,35.854,34.615,34.872,35.368
33.861999999999995,36.406,35.821999999999996,34.58,34.868,35.321
33.876999999999995,36.339,35.787,34.545,34.865,35.274
33.89,36.272,35.75,34.509,34.861999999999995,35.228
33.9,36.204,35.711,34.472,34.86,35.181999999999995
33.907,36.135999999999996,35.671,34.435,34.858000000000004,35.135999999999996
33.91,36.069,35.631,34.398,34.855,35.092
33.908,36.001999999999995,35.591,34.361999999999995,34.85,35.049
33.902,35.937,35.551,34.327,34.844,35.01
33.891,35.873000000000005,35.512,34.295,34.835,34.973
33.878,35.81,35.474000000000004,34.265,34.824,34.939
33.861,35.748000000000005,35.438,34.24,34.81,34.907
33.841,35.687,35.402,34.221,34.794000000000004,34.879
33.82,35.626,35.367,34.209,34.774,34.853
33.797,35.567,35.333,34.205,34.75,34.829
33.773,35.51,35.298,34.211,34.721,34.806999999999995
33.749,35.454,35.263000000000005,34.228,34.688,34.788000000000004
33.725,35.400999999999996,35.227,34.259,34.649,34.769
33.702,35.35,35.191,34.303000000000004,34.606,34.751999999999995
33.681,35.304,35.154,34.361999999999995,34.558,34.736999999999995
33.661,35.262,35.117,34.436,34.506,34.722
33.644,35.224000000000004,35.077,34.524,34.45,34.707
33.631,35.191,35.036,34.628,34.391999999999996,34.693000000000005
33.62,35.164,34.993,34.747,34.334,34.68
33.613,35.141,34.949,34.882,34.275999999999996,34.668
33.608000000000004,35.123000000000005,34.904,35.031,34.221,34.657
33.607,35.11,34.859,35.194,34.169000000000004,34.647
33.609,35.101,34.814,35.369,34.12,34.637
33.615,35.095,34.769,35.554,34.074,34.626999999999995
33.626999999999995,35.093,34.724000000000004,35.746,34.033,34.617
33.644,35.095,34.68,35.943000000000005,33.995,34.609
33.668,35.1,34.635999999999996,36.143,33.961999999999996,34.603
33.7,35.107,34.594,36.343,33.933,34.6
33.741,35.117,34.554,36.541,33.909,34.598
33.792,35.128,34.516,36.733000000000004,33.889,34.596
33.855,35.14,34.48,36.917,33.874,34.595
33.929,35.152,34.446,37.089,33.863,34.592
34.016,35.163000000000004,34.415,37.247,33.856,34.588
34.115,35.174,34.385,37.387,33.853,34.584
34.226,35.183,34.356,37.509,33.855,34.58
34.349000000000004,35.19,34.328,37.613,33.861,34.577
34.481,35.194,34.301,37.696999999999996,33.873000000000005,34.571999999999996
34.62,35.196,34.272,37.765,33.891,34.568000000000005
34.765,35.194,34.242,37.818000000000005,33.916,34.563
34.912,35.189,34.209,37.859,33.949,34.559
35.059,35.18,34.175,37.888000000000005,33.993,34.556
35.203,35.167,34.14,37.909,34.047,34.554
35.341,35.150999999999996,34.104,37.921,34.111999999999995,34.551
35.472,35.132,34.069,37.926,34.188,34.548
35.593,35.11,34.036,37.923,34.275999999999996,34.544000000000004
35.704,35.086,34.006,37.914,34.376,34.539
35.803000000000004,35.059,33.982,37.898,34.488,34.533
35.889,35.03,33.967,37.876,34.611999999999995,34.527
35.964,35.001,33.961999999999996,37.847,34.749,34.52
36.027,34.971,33.972,37.81,34.898,34.512
36.078,34.942,33.998000000000005,37.766999999999996,35.059,34.504
36.119,34.914,34.042,37.718,35.23,34.495
36.15,34.887,34.106,37.664,35.41,34.485
36.173,34.861999999999995,34.193000000000005,37.607,35.595,34.473
36.187,34.838,34.302,37.547,35.785,34.459
36.194,34.815,34.435,37.486,35.974000000000004,34.443000000000005
36.193000000000005,34.792,34.592,37.425,36.161,34.425
36.187,34.77,34.774,37.365,36.342,34.405
36.175,34.746,34.978,37.308,36.514,34.384
36.16,34.721,35.201,37.253,36.677,34.36
36.141999999999996,34.694,35.441,37.202,36.828,34.335
36.122,34.666,35.693000000000005,37.154,36.966,34.308
36.1,34.635999999999996,35.954,37.11,37.091,34.278
36.076,34.606,36.219,37.069,37.204,34.246
36.051,34.575,36.485,37.03,37.304,34.211999999999996
36.024,34.544000000000004,36.746,36.991,37.391999999999996,34.176
35.993,34.512,36.998000000000005,36.953,37.468,34.14
35.96,34.48,37.238,36.913000000000004,37.532,34.104
35.922,34.449,37.463,36.871,37.582,34.069
35.88,34.419000000000004,37.669000000000004,36.827,37.619,34.036
35.835,34.391,37.855,36.78,37.644,34.005
35.787,34.364000000000004,38.018,36.729,37.657,33.977
35.736999999999995,34.336999999999996,38.159,36.677,37.659,33.951
35.686,34.312,38.278,36.624,37.650999999999996,33.925
35.635,34.289,38.375,36.571,37.634,33.899
35.584,34.266999999999996,38.451,36.52,37.61,33.872
35.536,34.245,38.507,36.47,37.58,33.846
35.491,34.226,38.544000000000004,36.424,37.545,33.819
35.451,34.207,38.565,36.381,37.508,33.794000000000004
35.416,34.19,38.57,36.342,37.469,33.772
35.385,34.173,38.562,36.306999999999995,37.43,33.751
35.359,34.157,38.543,36.275999999999996,37.389,33.732
35.336,34.141,38.513000000000005,36.249,37.348,33.715
35.315,34.126,38.473,36.225,37.306,33.701
35.296,34.11,38.424,36.203,37.264,33.689
35.278,34.093,38.368,36.185,37.222,33.679
35.26,34.076,38.305,36.17,37.181,33.669000000000004
35.24,34.058,38.238,36.159,37.139,33.659
35.219,34.038000000000004,38.165,36.153,37.097,33.649
35.196999999999996,34.018,38.091,36.150999999999996,37.054,33.637
35.173,33.996,38.014,36.153,37.010999999999996,33.624
35.146,33.975,37.936,36.16,36.966,33.61
35.118,33.955,37.857,36.171,36.92,33.597
35.086,33.937,37.778,36.186,36.871,33.583
35.053000000000004,33.922,37.699,36.202,36.819,33.568000000000005
35.018,33.914,37.62,36.218,36.765,33.55
34.982,33.914,37.542,36.232,36.708,33.529
34.944,33.926,37.465,36.244,36.65,33.507
34.906,33.951,37.39,36.251,36.591,33.482
34.868,33.993,37.316,36.253,36.532,33.457
34.83,34.052,37.242,36.251999999999995,36.475,33.433
34.794000000000004,34.131,37.169000000000004,36.246,36.419000000000004,33.411
34.76,34.228,37.095,36.236,36.367,33.394
34.729,34.345,37.022,36.224000000000004,36.318000000000005,33.385
34.703,34.481,36.948,36.209,36.272,33.387
34.681,34.633,36.874,36.194,36.229,33.403
34.664,34.799,36.8,36.18,36.191,33.435
34.652,34.977,36.724000000000004,36.165,36.156,33.483000000000004
34.645,35.162,36.648,36.150999999999996,36.124,33.547
34.645,35.351,36.573,36.137,36.096,33.629
34.649,35.541,36.499,36.123000000000005,36.071,33.728
34.658,35.728,36.428000000000004,36.108000000000004,36.051,33.844
34.672,35.91,36.361,36.092,36.036,33.976
34.688,36.083,36.298,36.075,36.024,34.123000000000005
34.707,36.245,36.24,36.054,36.016999999999996,34.282
34.727,36.394,36.186,36.031,36.012,34.45
34.747,36.529,36.137,36.004,36.01,34.624
34.766,36.649,36.092,35.974000000000004,36.008,34.802
34.783,36.753,36.052,35.943000000000005,36.007,34.979
34.797,36.841,36.016999999999996,35.912,36.005,35.153
34.806999999999995,36.914,35.986,35.88,36.001,35.321
34.814,36.972,35.959,35.85,35.997,35.483000000000004
34.817,37.019,35.936,35.821,35.991,35.637
34.817,37.054,35.916,35.794000000000004,35.984,35.78
34.813,37.078,35.898,35.77,35.974000000000004,35.912
34.806,37.094,35.882,35.748000000000005,35.963,36.031
34.797,37.102,35.868,35.729,35.95,36.135999999999996
34.785,37.104,35.856,35.711,35.936,36.228
34.771,37.099000000000004,35.845,35.694,35.922,36.306999999999995
34.756,37.09,35.836,35.676,35.908,36.373000000000005
34.738,37.077,35.828,35.656,35.895,36.428000000000004
34.719,37.06,35.821,35.634,35.883,36.472
34.696999999999996,37.04,35.814,35.61,35.873000000000005,36.506
34.673,37.016999999999996,35.806999999999995,35.583,35.865,36.531
34.646,36.993,35.802,35.554,35.858000000000004,36.547
34.617,36.965,35.797,35.524,35.851,36.556
34.586,36.935,35.794000000000004,35.493,35.844,36.558
34.555,36.903,35.79,35.461,35.834,36.553000000000004
34.524,36.868,35.786,35.431,35.821999999999996,36.54
34.494,36.832,35.779,35.4,35.808,36.522
34.467,36.795,35.77,35.37,35.791,36.498000000000005
34.443000000000005,36.755,35.758,35.341,35.772,36.47
34.423,36.711999999999996,35.744,35.311,35.751,36.439
34.408,36.667,35.728,35.281,35.729,36.405
34.397,36.62,35.711999999999996,35.249,35.707,36.368
34.391,36.57,35.694,35.215,35.683,36.330999999999996
34.39,36.518,35.675,35.179,35.659,36.292
34.391999999999996,36.463,35.654,35.141,35.632,36.253
34.397,36.406,35.632,35.101,35.604,36.213
34.402,36.347,35.609,35.06,35.571999999999996,36.172
34.407,36.285,35.583,35.02,35.537,36.129
34.41,36.22,35.556,34.981,35.498000000000005,36.086999999999996
34.41,36.154,35.525999999999996,34.943000000000005,35.455999999999996,36.044000000000004
34.408,36.089,35.495,34.907,35.411,36.001
34.402,36.024,35.461999999999996,34.872,35.364000000000004,35.959
34.391999999999996,35.961,35.429,34.839,35.316,35.916
34.378,35.900999999999996,35.395,34.806999999999995,35.266999999999996,35.874
34.36,35.845,35.361999999999995,34.775,35.217,35.830999999999996
34.338,35.793,35.329,34.742,35.166,35.788000000000004
34.313,35.746,35.295,34.705999999999996,35.114000000000004,35.745
34.285,35.704,35.258,34.667,35.06,35.703
34.256,35.667,35.219,34.624,35.004,35.662
34.225,35.635999999999996,35.178000000000004,34.577,34.946999999999996,35.621
34.194,35.61,35.134,34.528,34.891,35.580999999999996
34.164,35.586999999999996,35.091,34.479,34.835,35.542
34.135,35.568000000000005,35.047,34.431,34.781,35.505
34.108000000000004,35.553000000000004,35.004,34.387,34.729,35.469
34.080999999999996,35.54,34.961999999999996,34.349000000000004,34.68,35.435
34.056,35.529,34.921,34.319,34.635,35.402
34.032,35.52,34.882,34.297,34.594,35.372
34.01,35.513000000000005,34.846,34.287,34.558,35.345
33.99,35.505,34.811,34.289,34.527,35.321999999999996
33.971,35.498000000000005,34.779,34.304,34.501,35.302
33.955,35.491,34.748000000000005,34.334,34.481,35.286
33.94,35.484,34.718,34.381,34.465,35.273
33.928000000000004,35.478,34.689,34.446999999999996,34.455,35.263000000000005
33.919000000000004,35.471,34.661,34.533,34.448,35.255
33.913000000000004,35.463,34.631,34.641999999999996,34.445,35.249
33.911,35.454,34.6,34.773,34.444,35.245
33.913000000000004,35.443000000000005,34.566,34.926,34.446,35.241
33.92,35.431999999999995,34.529,35.1,34.448,35.238
33.931,35.419000000000004,34.489000000000004,35.294000000000004,34.451,35.235
33.945,35.406,34.448,35.504,34.457,35.234
33.963,35.391,34.406,35.726,34.467,35.233000000000004
33.985,35.376,34.363,35.954,34.484,35.234
34.010999999999996,35.36,34.321,36.185,34.510999999999996,35.236
34.042,35.343,34.281,36.413000000000004,34.551,35.238
34.079,35.326,34.242,36.635,34.606,35.239000000000004
34.121,35.308,34.204,36.847,34.678000000000004,35.24
34.172,35.29,34.168,37.049,34.768,35.238
34.23,35.272,34.132,37.238,34.876,35.236
34.298,35.255,34.097,37.413000000000004,35.001,35.233000000000004
34.376,35.239000000000004,34.062,37.573,35.141999999999996,35.229
34.465,35.223,34.025999999999996,37.719,35.297,35.225
34.565,35.208,33.991,37.85,35.464,35.22
34.675,35.193000000000005,33.955999999999996,37.966,35.641,35.215
34.795,35.178000000000004,33.92,38.067,35.827,35.209
34.922,35.162,33.885,38.153,36.02,35.203
35.054,35.145,33.849000000000004,38.223,36.218,35.196
35.191,35.128,33.815,38.279,36.417,35.189
35.328,35.109,33.781,38.321,36.616,35.183
35.464,35.089,33.748000000000005,38.348,36.81,35.176
35.596,35.068000000000005,33.716,38.359,36.998000000000005,35.169000000000004
35.723,35.045,33.684,38.356,37.176,35.162
35.842,35.02,33.652,38.34,37.341,35.155
35.955,34.996,33.621,38.312,37.493,35.146
36.059,34.97,33.591,38.274,37.63,35.135999999999996
36.154,34.944,33.562,38.229,37.75,35.125
36.238,34.917,33.535,38.177,37.855,35.111
36.313,34.888000000000005,33.512,38.121,37.945,35.096
36.376999999999995,34.857,33.494,38.063,38.021,35.08
36.429,34.824,33.485,38.005,38.083,35.06
36.471,34.79,33.486999999999995,37.946999999999996,38.131,35.038000000000004
36.501,34.753,33.501999999999995,37.891,38.167,35.014
36.52,34.714,33.534,37.838,38.188,34.99
36.529,34.673,33.586,37.787,38.196999999999996,34.964
36.528,34.63,33.658,37.738,38.193000000000005,34.937
36.518,34.586,33.754,37.69,38.178000000000004,34.909
36.5,34.542,33.874,37.641999999999996,38.154,34.88
36.476,34.497,34.019,37.593,38.12,34.851
36.446,34.453,34.188,37.54,38.08,34.82
36.412,34.41,34.38,37.484,38.034,34.791
36.375,34.37,34.591,37.423,37.984,34.764
36.336999999999996,34.332,34.821,37.359,37.931,34.738
36.297,34.298,35.064,37.291,37.876,34.714
36.257,34.266,35.317,37.221,37.818000000000005,34.692
36.216,34.238,35.575,37.148,37.758,34.67
36.176,34.213,35.834,37.076,37.696999999999996,34.648
36.135999999999996,34.19,36.09,37.004,37.633,34.626
36.096,34.17,36.339,36.934,37.566,34.604
36.056999999999995,34.150999999999996,36.578,36.868,37.499,34.580999999999996
36.019,34.134,36.803000000000004,36.805,37.43,34.558
35.982,34.116,37.013000000000005,36.747,37.361,34.534
35.945,34.098,37.207,36.694,37.293,34.510999999999996
35.91,34.079,37.383,36.646,37.226,34.486999999999995
35.875,34.059,37.54,36.602,37.16,34.463
35.84,34.04,37.678000000000004,36.561,37.097,34.437
35.806,34.021,37.796,36.523,37.037,34.411
35.772,34.003,37.896,36.486999999999995,36.979,34.385
35.739000000000004,33.986999999999995,37.977,36.452,36.925,34.359
35.705,33.976,38.041,36.417,36.875,34.335
35.672,33.969,38.089,36.384,36.828,34.312
35.638000000000005,33.969,38.121,36.351,36.785,34.29
35.606,33.979,38.137,36.321,36.745,34.271
35.574,34.0,38.138000000000005,36.293,36.708,34.253
35.543,34.035,38.126,36.27,36.675,34.238
35.514,34.085,38.101,36.251,36.644,34.224000000000004
35.486999999999995,34.154,38.065,36.238,36.615,34.211999999999996
35.461999999999996,34.24,38.019,36.23,36.589,34.2
35.441,34.345,37.965,36.226,36.565,34.187
35.421,34.468,37.902,36.227,36.541,34.174
35.405,34.609,37.834,36.23,36.519,34.159
35.39,34.765,37.760999999999996,36.235,36.496,34.144
35.376999999999995,34.934,37.683,36.242,36.472,34.126999999999995
35.363,35.113,37.6,36.249,36.446999999999996,34.108000000000004
35.349000000000004,35.299,37.515,36.255,36.422,34.086
35.332,35.488,37.425,36.259,36.397,34.061
35.313,35.676,37.333,36.259,36.374,34.034
35.292,35.859,37.239000000000004,36.257,36.354,34.006
35.268,36.035,37.143,36.251999999999995,36.336999999999996,33.98
35.241,36.2,37.047,36.246,36.325,33.955999999999996
35.213,36.353,36.95,36.236999999999995,36.318000000000005,33.938
35.184,36.492,36.855,36.228,36.315,33.927
35.157,36.617,36.762,36.218,36.316,33.925
35.131,36.726,36.671,36.208,36.319,33.935
35.108000000000004,36.821,36.583,36.196999999999996,36.325,33.961
35.089,36.900999999999996,36.498000000000005,36.185,36.330999999999996,34.004
35.074,36.967,36.418,36.171,36.336999999999996,34.064
35.062,37.02,36.342,36.155,36.343,34.141999999999996
35.056,37.059,36.269,36.137,36.348,34.236999999999995
35.053000000000004,37.086999999999996,36.2,36.116,36.352,34.348
35.054,37.103,36.134,36.095,36.353,34.474000000000004
35.058,37.109,36.071,36.073,36.353,34.614000000000004
35.065,37.105,36.01,36.052,36.35,34.766999999999996
35.073,37.091,35.952,36.032,36.344,34.93
35.080999999999996,37.069,35.895,36.013000000000005,36.334,35.101
35.089,37.039,35.839,35.998000000000005,36.319,35.277
35.095,37.004,35.783,35.985,36.3,35.455
35.099000000000004,36.963,35.728,35.975,36.277,35.633
35.101,36.919000000000004,35.674,35.967,36.25,35.808
35.1,36.873000000000005,35.623000000000005,35.959,36.221,35.978
35.095,36.825,35.574,35.949,36.19,36.141
35.089,36.777,35.529,35.935,36.159,36.295
35.080999999999996,36.729,35.489000000000004,35.915,36.129,36.44
35.071999999999996,36.681999999999995,35.452,35.89,36.102,36.575
35.063,36.635999999999996,35.42,35.86,36.076,36.698
35.054,36.591,35.391,35.825,36.052,36.808
35.045,36.546,35.365,35.788000000000004,36.029,36.903
35.037,36.501999999999995,35.344,35.748000000000005,36.008,36.985
35.029,36.459,35.327,35.709,35.986,37.053000000000004
35.021,36.416,35.315,35.67,35.963,37.108000000000004
35.013000000000005,36.373000000000005,35.305,35.634,35.94,37.149
35.005,36.329,35.299,35.599000000000004,35.916,37.178000000000004
34.995,36.283,35.294000000000004,35.566,35.891,37.194
34.983000000000004,36.236,35.292,35.533,35.864000000000004,37.199
34.97,36.187,35.292,35.499,35.836,37.193000000000005
34.955,36.135999999999996,35.293,35.464,35.806,37.179
34.939,36.084,35.295,35.426,35.775999999999996,37.157
34.921,36.03,35.298,35.385,35.745,37.126999999999995
34.903,35.975,35.301,35.342,35.713,37.093
34.884,35.919000000000004,35.303000000000004,35.296,35.68,37.054
34.865,35.861999999999995,35.306,35.249,35.647,37.013000000000005
34.845,35.804,35.309,35.203,35.613,36.971
34.826,35.746,35.31,35.16,35.578,36.926
34.805,35.69,35.31,35.12,35.54,36.881
34.785,35.635,35.308,35.083,35.501,36.833
34.765,35.584,35.304,35.05,35.461,36.783
34.744,35.536,35.298,35.019,35.42,36.733000000000004
34.722,35.491,35.288000000000004,34.99,35.378,36.681999999999995
34.699,35.45,35.275999999999996,34.961999999999996,35.335,36.63
34.676,35.411,35.26,34.934,35.291,36.576
34.65,35.376,35.243,34.905,35.246,36.523
34.624,35.343,35.223,34.874,35.202,36.47
34.597,35.314,35.203,34.841,35.158,36.418
34.569,35.287,35.181999999999995,34.806,35.115,36.368
34.54,35.262,35.161,34.77,35.073,36.318000000000005
34.513000000000005,35.239000000000004,35.139,34.733000000000004,35.031,36.269
34.486,35.22,35.118,34.696999999999996,34.99,36.221
34.46,35.203,35.095,34.661,34.946999999999996,36.173
34.437,35.188,35.07,34.626,34.905,36.126999999999995
34.415,35.176,35.042,34.592,34.863,36.080999999999996
34.394,35.164,35.010999999999996,34.558,34.821999999999996,36.037
34.375,35.154,34.976,34.524,34.785,35.994
34.356,35.146,34.939,34.491,34.751999999999995,35.951
34.338,35.139,34.899,34.457,34.728,35.909
34.32,35.133,34.857,34.423,34.715,35.866
34.302,35.129,34.814,34.388000000000005,34.716,35.824
34.284,35.126,34.769,34.353,34.733000000000004,35.783
34.265,35.122,34.724000000000004,34.317,34.768,35.744
34.246,35.119,34.679,34.281,34.824,35.707
34.226,35.114000000000004,34.634,34.246,34.900999999999996,35.673
34.207,35.108000000000004,34.59,34.213,35.001999999999995,35.645
34.187,35.101,34.547,34.181999999999995,35.125,35.621
34.168,35.091,34.505,34.153,35.272,35.603
34.148,35.079,34.464,34.126999999999995,35.44,35.588
34.126999999999995,35.064,34.424,34.106,35.628,35.576
34.107,35.048,34.385999999999996,34.092,35.832,35.566
34.086,35.029,34.349000000000004,34.086999999999996,36.051,35.559
34.064,35.009,34.314,34.093,36.279,35.553000000000004
34.041,34.986,34.279,34.114000000000004,36.514,35.549
34.016999999999996,34.963,34.246,34.152,36.753,35.547
33.992,34.939,34.214,34.211,36.992,35.544000000000004
33.968,34.915,34.183,34.292,37.226,35.541
33.946,34.89,34.152,34.397,37.451,35.539
33.928000000000004,34.866,34.121,34.525999999999996,37.665,35.536
33.913000000000004,34.84,34.091,34.679,37.864000000000004,35.534
33.905,34.813,34.061,34.855,38.047,35.532
33.904,34.785,34.031,35.05,38.211,35.531
33.914,34.754,33.999,35.262,38.357,35.53
33.934,34.722,33.967,35.486,38.484,35.53
33.966,34.687,33.934,35.717,38.592,35.531
34.010999999999996,34.649,33.9,35.951,38.681,35.533
34.07,34.607,33.866,36.184,38.754,35.535
34.141999999999996,34.563,33.832,36.412,38.811,35.536
34.228,34.516,33.798,36.634,38.853,35.538000000000004
34.327,34.467,33.762,36.848,38.881,35.537
34.439,34.417,33.726,37.051,38.896,35.535
34.562,34.365,33.689,37.243,38.899,35.531
34.696,34.314,33.65,37.422,38.891,35.524
34.839,34.263000000000005,33.611999999999995,37.586999999999996,38.873000000000005,35.515
34.989000000000004,34.213,33.573,37.735,38.846,35.504
35.143,34.166,33.535,37.867,38.812,35.492
35.3,34.122,33.498000000000005,37.98,38.771,35.48
35.458,34.080999999999996,33.461,38.074,38.725,35.468
35.614000000000004,34.043,33.426,38.147,38.675,35.455999999999996
35.766,34.010999999999996,33.393,38.2,38.621,35.443000000000005
35.913000000000004,33.983000000000004,33.361999999999995,38.233000000000004,38.565,35.43
36.052,33.96,33.333,38.247,38.505,35.415
36.181,33.941,33.305,38.242,38.443000000000005,35.398
36.3,33.925,33.28,38.221,38.376999999999995,35.382
36.406,33.912,33.256,38.184,38.309,35.364000000000004
36.501,33.900999999999996,33.233000000000004,38.135999999999996,38.239000000000004,35.346
36.583,33.89,33.213,38.078,38.166,35.325
36.653,33.879,33.195,38.015,38.091,35.302
36.711999999999996,33.867,33.181999999999995,37.949,38.016,35.277
36.759,33.852,33.174,37.882,37.94,35.25
36.795,33.834,33.173,37.815,37.864000000000004,35.223
36.821,33.812,33.181999999999995,37.751999999999995,37.79,35.195
36.838,33.786,33.202,37.692,37.718,35.167
36.847,33.757,33.236999999999995,37.639,37.647,35.141
36.848,33.725,33.289,37.592,37.578,35.115
36.841,33.691,33.359,37.551,37.510999999999996,35.091
36.826,33.654,33.449,37.513000000000005,37.445,35.067
36.804,33.615,33.561,37.477,37.38,35.043
36.775,33.577,33.693000000000005,37.44,37.316,35.019
36.738,33.539,33.848,37.402,37.254,34.994
36.696,33.505,34.024,37.36,37.193000000000005,34.969
36.647,33.475,34.22,37.313,37.134,34.944
36.594,33.451,34.431999999999995,37.262,37.077,34.918
36.538000000000004,33.434,34.659,37.207,37.022,34.89
36.48,33.425,34.895,37.149,36.967,34.861999999999995
36.42,33.428000000000004,35.138000000000005,37.09,36.913000000000004,34.832
36.361,33.443000000000005,35.383,37.03,36.859,34.801
36.303000000000004,33.472,35.628,36.97,36.806,34.77
36.247,33.516,35.869,36.912,36.751999999999995,34.738
36.194,33.575,36.104,36.855,36.7,34.705999999999996
36.144,33.65,36.328,36.8,36.649,34.674
36.096,33.742,36.539,36.747,36.601,34.641
36.051,33.85,36.734,36.696,36.556999999999995,34.609
36.008,33.973,36.911,36.646,36.519,34.579
35.967,34.111999999999995,37.07,36.596,36.486999999999995,34.552
35.927,34.262,37.211,36.547,36.464,34.527
35.888000000000005,34.423,37.333,36.499,36.449,34.503
35.85,34.592,37.437,36.452,36.442,34.48
35.812,34.766,37.522,36.407,36.441,34.457
35.774,34.943000000000005,37.588,36.365,36.446,34.436
35.736999999999995,35.12,37.635999999999996,36.327,36.454,34.416
35.7,35.293,37.667,36.293,36.464,34.397
35.662,35.461,37.681999999999995,36.264,36.474000000000004,34.38
35.624,35.62,37.681,36.238,36.484,34.365
35.586999999999996,35.769,37.667,36.216,36.494,34.351
35.549,35.906,37.641,36.196999999999996,36.501999999999995,34.338
35.512,36.031,37.604,36.181,36.51,34.325
35.476,36.143,37.556999999999995,36.167,36.516,34.311
35.439,36.242,37.501999999999995,36.154,36.521,34.296
35.403,36.329,37.44,36.141,36.525,34.278
35.367,36.404,37.374,36.126,36.527,34.259
35.33,36.468,37.304,36.11,36.528,34.239000000000004
35.294000000000004,36.522,37.232,36.093,36.525999999999996,34.219
35.257,36.566,37.158,36.073,36.521,34.203
35.221,36.6,37.083,36.052,36.513000000000005,34.193000000000005
35.184,36.626,37.005,36.031,36.501,34.192
35.148,36.641999999999996,36.927,36.009,36.486,34.2
35.111999999999995,36.649,36.847,35.985,36.469,34.222
35.077,36.649,36.766999999999996,35.961,36.452,34.257
35.044000000000004,36.641,36.686,35.938,36.433,34.309
35.013000000000005,36.626999999999995,36.607,35.915,36.415,34.376999999999995
34.984,36.606,36.527,35.894,36.396,34.461999999999996
34.958,36.58,36.448,35.874,36.376999999999995,34.564
34.934,36.55,36.37,35.856,36.357,34.681999999999995
34.914,36.514,36.293,35.839,36.336,34.815
34.898,36.474000000000004,36.218,35.823,36.314,34.961999999999996
34.884,36.428000000000004,36.143,35.806,36.29,35.12
34.874,36.378,36.07,35.789,36.264,35.288000000000004
34.866,36.324,36.0,35.77,36.236999999999995,35.46
34.861999999999995,36.265,35.931,35.751,36.208,35.635999999999996
34.86,36.203,35.865,35.73,36.177,35.812
34.861999999999995,36.138000000000005,35.799,35.709,36.144,35.988
34.867,36.069,35.735,35.689,36.109,36.16
34.876,35.998000000000005,35.673,35.671,36.073,36.328
34.887,35.926,35.613,35.657,36.036,36.49
34.9,35.852,35.556,35.647,35.998000000000005,36.643
34.915,35.778,35.503,35.641,35.957,36.785
34.93,35.705999999999996,35.455,35.639,35.915,36.917
34.944,35.635,35.411,35.639,35.869,37.036
34.957,35.568000000000005,35.371,35.64,35.819,37.141999999999996
34.967,35.503,35.334,35.641,35.766,37.234
34.973,35.443000000000005,35.3,35.639,35.71,37.314
34.974000000000004,35.387,35.269,35.633,35.653,37.381
34.969,35.336,35.241,35.621,35.595,37.435
34.959,35.291,35.214,35.602,35.535,37.476
34.942,35.25,35.19,35.576,35.476,37.505
34.919000000000004,35.214,35.168,35.544000000000004,35.416,37.522
34.89,35.183,35.149,35.506,35.357,37.528
34.857,35.154,35.133,35.464,35.297,37.525999999999996
34.821,35.129,35.12,35.419000000000004,35.236,37.516999999999996
34.783,35.106,35.109,35.373000000000005,35.176,37.503
34.745,35.085,35.102,35.328,35.117,37.483000000000004
34.708,35.065,35.097,35.284,35.059,37.46
34.674,35.046,35.095,35.243,35.004,37.435
34.643,35.027,35.096,35.203,34.952,37.408
34.615,35.008,35.099000000000004,35.165,34.903,37.38
34.59,34.988,35.105,35.126999999999995,34.859,37.351
34.567,34.969,35.111999999999995,35.089,34.821,37.321
34.546,34.951,35.119,35.05,34.792,37.288000000000004
34.525999999999996,34.934,35.125,35.009,34.773,37.251999999999995
34.507,34.919000000000004,35.13,34.968,34.766,37.214
34.486999999999995,34.906,35.134,34.927,34.775999999999996,37.172
34.466,34.896,35.135,34.885999999999996,34.803000000000004,37.126999999999995
34.445,34.891,35.135,34.846,34.851,37.078
34.421,34.89,35.134,34.808,34.92,37.024
34.395,34.891999999999996,35.131,34.772,35.010999999999996,36.968
34.367,34.899,35.126,34.739000000000004,35.124,36.908
34.336999999999996,34.911,35.119,34.708,35.256,36.846
34.304,34.925,35.11,34.678000000000004,35.408,36.783
34.27,34.941,35.1,34.65,35.576,36.72
34.235,34.959,35.088,34.623000000000005,35.760999999999996,36.657
34.199,34.977,35.074,34.596,35.958,36.597
34.164,34.996,35.058,34.568000000000005,36.168,36.541
34.131,35.014,35.04,34.54,36.389,36.489000000000004
34.101,35.03,35.021,34.510999999999996,36.618,36.44
34.074,35.045,34.998000000000005,34.481,36.853,36.395
34.051,35.056999999999995,34.972,34.451,37.093,36.352
34.032,35.065,34.944,34.421,37.333,36.312
34.015,35.07,34.914,34.393,37.571,36.274
34.001,35.07,34.881,34.366,37.804,36.238
33.989000000000004,35.067,34.848,34.341,38.029,36.205
33.978,35.059,34.814,34.317,38.242,36.174
33.967,35.046,34.78,34.292,38.441,36.144
33.957,35.03,34.746,34.266999999999996,38.625,36.116
33.945,35.010999999999996,34.714,34.242,38.792,36.09
33.931999999999995,34.988,34.683,34.215,38.942,36.066
33.916,34.964,34.653,34.186,39.075,36.045
33.897,34.937,34.624,34.155,39.19,36.027
33.875,34.909,34.595,34.121,39.287,36.012
33.849000000000004,34.879,34.565,34.085,39.365,36.001999999999995
33.82,34.848,34.535,34.048,39.426,35.997
33.787,34.817,34.501999999999995,34.010999999999996,39.47,35.996
33.75,34.785,34.468,33.975,39.497,36.0
33.71,34.754,34.433,33.943000000000005,39.509,36.005
33.668,34.724000000000004,34.397,33.916,39.506,36.012
33.624,34.695,34.361,33.893,39.491,36.02
33.580999999999996,34.667,34.325,33.876999999999995,39.463,36.027
33.538000000000004,34.641999999999996,34.292,33.868,39.423,36.034
33.498000000000005,34.618,34.260999999999996,33.868,39.374,36.038000000000004
33.461,34.596,34.233000000000004,33.88,39.315,36.04
33.429,34.575,34.207,33.906,39.249,36.04
33.403,34.555,34.181999999999995,33.949,39.177,36.036
33.384,34.536,34.159,34.01,39.101,36.029
33.371,34.516999999999996,34.137,34.093,39.023,36.02
33.366,34.499,34.115,34.199,38.944,36.01
33.367,34.48,34.094,34.328,38.867,35.997
33.376,34.461,34.074,34.482,38.791,35.983000000000004
33.394,34.441,34.053000000000004,34.66,38.719,35.966
33.42,34.421,34.033,34.859,38.649,35.946999999999996
33.455,34.4,34.014,35.077,38.582,35.928000000000004
33.499,34.378,33.994,35.311,38.516,35.908
33.553000000000004,34.357,33.973,35.556999999999995,38.452,35.888000000000005
33.618,34.334,33.952,35.811,38.387,35.868
33.693000000000005,34.311,33.929,36.068000000000005,38.32,35.848
33.78,34.287,33.903,36.324,38.251,35.827
33.878,34.262,33.876,36.575,38.179,35.805
33.986999999999995,34.238,33.845,36.817,38.105,35.782
34.107,34.214,33.812,37.048,38.03,35.758
34.236999999999995,34.191,33.775999999999996,37.264,37.955,35.732
34.375,34.169000000000004,33.738,37.465,37.879,35.704
34.52,34.148,33.699,37.648,37.804,35.676
34.668,34.129,33.659,37.812,37.73,35.649
34.818000000000005,34.11,33.618,37.957,37.655,35.621
34.966,34.091,33.576,38.083,37.582,35.591
35.111999999999995,34.071999999999996,33.534,38.192,37.508,35.56
35.251,34.053000000000004,33.492,38.284,37.436,35.525999999999996
35.384,34.033,33.451,38.359,37.366,35.49
35.508,34.013000000000005,33.41,38.419000000000004,37.297,35.453
35.622,33.992,33.371,38.465,37.232,35.416
35.726,33.972,33.335,38.497,37.17,35.379
35.819,33.952,33.302,38.516,37.113,35.342
35.902,33.934,33.275,38.522,37.06,35.306999999999995
35.975,33.919000000000004,33.255,38.515,37.014,35.274
36.037,33.909,33.245,38.496,36.974000000000004,35.242
36.09,33.905,33.246,38.465,36.939,35.213
36.134,33.911,33.259,38.422,36.908,35.185
36.169000000000004,33.926,33.287,38.37,36.882,35.159
36.196999999999996,33.953,33.330999999999996,38.309,36.858000000000004,35.135
36.216,33.993,33.394,38.241,36.836,35.111
36.227,34.048,33.477,38.169000000000004,36.816,35.088
36.229,34.12,33.582,38.095,36.799,35.066
36.223,34.208,33.709,38.021,36.785,35.044000000000004
36.209,34.314,33.859,37.946999999999996,36.774,35.021
36.187,34.435,34.031,37.876,36.766999999999996,34.997
36.157,34.571,34.223,37.806999999999995,36.763000000000005,34.972
36.12,34.721,34.434,37.741,36.762,34.946
36.078,34.881,34.659,37.68,36.764,34.917
36.031,35.049,34.896,37.621,36.766999999999996,34.888000000000005
35.981,35.222,35.141,37.565,36.773,34.858000000000004
35.928000000000004,35.397,35.39,37.510999999999996,36.779,34.827
35.875,35.571999999999996,35.639,37.457,36.784,34.796
35.821999999999996,35.744,35.884,37.402,36.789,34.766
35.77,35.909,36.123000000000005,37.346,36.792,34.736
35.72,36.067,36.351,37.287,36.793,34.707
35.672,36.216,36.568000000000005,37.225,36.793,34.678000000000004
35.626999999999995,36.354,36.769,37.161,36.793,34.648
35.584,36.481,36.954,37.093,36.793,34.619
35.543,36.596,37.12,37.025,36.792,34.591
35.503,36.7,37.266999999999996,36.955,36.79,34.563
35.466,36.791,37.394,36.887,36.785,34.537
35.431,36.871,37.501,36.82,36.775999999999996,34.512
35.398,36.938,37.589,36.757,36.763000000000005,34.489000000000004
35.367,36.992,37.658,36.698,36.745,34.467
35.338,37.034,37.708,36.641999999999996,36.723,34.446
35.31,37.065,37.742,36.59,36.696,34.425
35.282,37.085,37.76,36.542,36.665,34.404
35.255,37.093,37.764,36.498000000000005,36.631,34.381
35.227,37.092,37.755,36.457,36.594,34.357
35.199,37.082,37.735,36.418,36.554,34.332
35.171,37.065,37.705999999999996,36.381,36.510999999999996,34.306
35.143,37.042,37.67,36.347,36.466,34.282
35.116,37.013000000000005,37.629,36.315,36.42,34.262
35.09,36.98,37.584,36.286,36.372,34.248000000000005
35.065,36.944,37.535,36.260999999999996,36.324,34.243
35.04,36.905,37.484,36.24,36.275,34.249
35.015,36.863,37.431,36.224000000000004,36.226,34.266
34.99,36.819,37.374,36.213,36.178000000000004,34.298
34.965,36.773,37.315,36.207,36.13,34.346
34.942,36.725,37.253,36.205,36.083,34.413000000000004
34.919000000000004,36.674,37.188,36.205,36.036,34.5
34.896,36.621,37.119,36.208,35.991,34.609
34.875,36.567,37.047,36.211999999999996,35.946,34.739000000000004
34.854,36.510999999999996,36.972,36.217,35.900999999999996,34.888000000000005
34.834,36.454,36.895,36.22,35.855,35.056
34.815,36.396,36.815,36.221,35.806999999999995,35.24
34.798,36.336999999999996,36.734,36.221,35.757,35.438
34.782,36.275999999999996,36.649,36.219,35.704,35.648
34.766999999999996,36.213,36.564,36.216,35.649,35.864000000000004
34.754,36.149,36.476,36.214,35.591,36.086
34.743,36.082,36.388000000000005,36.211,35.53,36.306999999999995
34.732,36.015,36.3,36.208,35.466,36.525999999999996
34.723,35.946,36.214,36.205999999999996,35.4,36.738
34.713,35.876,36.129,36.204,35.330999999999996,36.942
34.704,35.806999999999995,36.047,36.202,35.26,37.133
34.694,35.738,35.97,36.199,35.188,37.31
34.685,35.67,35.896,36.194,35.116,37.471
34.675,35.604,35.828,36.185,35.046,37.615
34.666,35.541,35.763000000000005,36.172,34.979,37.743
34.657,35.483000000000004,35.704,36.154,34.915,37.854
34.647,35.431,35.649,36.132,34.856,37.946999999999996
34.638000000000005,35.385,35.598,36.107,34.802,38.024
34.63,35.346,35.551,36.079,34.754,38.084
34.623000000000005,35.314,35.508,36.049,34.71,38.128
34.618,35.289,35.47,36.016999999999996,34.671,38.156
34.615,35.272,35.434,35.984,34.635999999999996,38.169000000000004
34.615,35.260999999999996,35.400999999999996,35.949,34.608000000000004,38.169000000000004
34.616,35.256,35.371,35.914,34.586999999999996,38.157
34.62,35.257,35.344,35.878,34.575,38.135999999999996
34.626,35.260999999999996,35.321,35.843,34.575,38.106
34.634,35.268,35.299,35.808,34.588,38.069
34.644,35.277,35.28,35.772,34.618,38.027
34.654,35.287,35.26,35.736,34.665,37.981
34.666,35.298,35.241,35.699,34.734,37.933
34.678000000000004,35.308,35.221,35.662,34.824,37.883
34.688,35.317,35.203,35.623000000000005,34.939,37.834
34.696999999999996,35.326,35.185,35.582,35.078,37.784
34.703,35.332,35.17,35.538000000000004,35.24,37.735
34.705999999999996,35.336999999999996,35.158,35.492,35.424,37.687
34.707,35.339,35.148,35.445,35.628,37.639
34.705,35.338,35.141,35.398,35.85,37.592
34.7,35.335,35.135,35.351,36.086999999999996,37.545
34.692,35.329,35.13,35.305,36.339,37.498000000000005
34.681999999999995,35.321999999999996,35.128,35.260999999999996,36.602,37.451
34.669000000000004,35.313,35.126999999999995,35.219,36.872,37.404
34.655,35.303000000000004,35.129,35.18,37.146,37.357
34.641,35.293,35.132,35.141999999999996,37.421,37.309
34.626999999999995,35.282,35.137,35.106,37.692,37.260999999999996
34.613,35.27,35.141999999999996,35.069,37.955999999999996,37.211999999999996
34.599000000000004,35.257,35.148,35.031,38.208,37.16
34.586,35.244,35.153,34.991,38.446999999999996,37.105
34.573,35.229,35.156,34.948,38.67,37.048
34.56,35.211999999999996,35.157,34.900999999999996,38.874,36.989000000000004
34.547,35.192,35.154,34.852,39.059,36.928000000000004
34.533,35.171,35.148,34.802,39.225,36.864000000000004
34.518,35.148,35.139,34.751999999999995,39.37,36.797
34.503,35.123000000000005,35.128,34.703,39.496,36.729
34.486999999999995,35.097,35.114000000000004,34.655,39.603,36.662
34.471,35.07,35.097,34.611,39.693000000000005,36.596
34.454,35.041,35.078,34.57,39.766,36.534
34.437,35.012,35.056999999999995,34.532,39.823,36.474000000000004
34.418,34.982,35.033,34.497,39.866,36.418
34.398,34.951,35.005,34.461,39.895,36.367
34.376,34.919000000000004,34.973,34.426,39.912,36.321
34.354,34.887,34.939,34.388000000000005,39.918,36.282
34.33,34.855,34.902,34.349000000000004,39.914,36.249
34.305,34.821999999999996,34.863,34.309,39.900999999999996,36.223
34.279,34.79,34.823,34.268,39.881,36.204
34.251999999999995,34.759,34.782,34.227,39.853,36.191
34.224000000000004,34.73,34.742,34.185,39.82,36.181999999999995
34.195,34.703,34.702,34.143,39.781,36.178000000000004
34.165,34.677,34.663000000000004,34.101,39.736999999999995,36.179
34.135,34.654,34.625,34.059,39.688,36.183
34.104,34.633,34.586999999999996,34.016999999999996,39.635999999999996,36.189
34.071999999999996,34.613,34.548,33.976,39.58,36.198
34.04,34.594,34.51,33.935,39.521,36.208
34.009,34.575,34.471,33.897,39.461999999999996,36.218
33.977,34.555,34.431999999999995,33.861,39.403,36.228
33.946999999999996,34.533,34.391999999999996,33.829,39.346,36.235
33.916,34.509,34.353,33.802,39.29,36.239000000000004
33.887,34.483000000000004,34.315,33.784,39.235,36.24
33.859,34.455999999999996,34.277,33.775999999999996,39.179,36.24
33.832,34.428000000000004,34.239000000000004,33.779,39.121,36.236999999999995
33.806,34.399,34.201,33.797,39.06,36.232
33.782,34.37,34.163000000000004,33.83,38.996,36.224000000000004
33.757,34.341,34.126,33.881,38.928000000000004,36.213
33.733000000000004,34.313,34.088,33.951,38.858000000000004,36.199
33.709,34.286,34.051,34.04,38.784,36.181
33.685,34.26,34.013000000000005,34.149,38.709,36.161
33.662,34.233000000000004,33.976,34.28,38.634,36.139
33.641,34.205999999999996,33.939,34.43,38.559,36.114000000000004
33.623000000000005,34.179,33.903,34.601,38.485,36.088
33.609,34.150999999999996,33.866,34.79,38.413000000000004,36.06
33.6,34.122,33.83,34.996,38.343,36.03
33.599000000000004,34.094,33.793,35.218,38.274,35.999
33.606,34.064,33.757,35.452,38.207,35.968
33.623000000000005,34.034,33.721,35.696,38.14,35.938
33.652,34.004,33.685,35.948,38.075,35.909
33.693000000000005,33.973,33.649,36.202,38.012,35.881
33.749,33.943000000000005,33.614000000000004,36.455999999999996,37.952,35.855
33.82,33.913000000000004,33.579,36.704,37.896,35.829
33.906,33.885,33.543,36.944,37.845,35.805
34.006,33.86,33.507,37.17,37.798,35.781
34.12,33.839,33.471,37.379,37.756,35.758
34.247,33.824,33.434,37.569,37.718,35.735
34.383,33.815,33.398,37.735,37.683,35.711
34.528,33.815,33.361,37.878,37.65,35.686
34.68,33.825,33.325,37.997,37.62,35.658
34.836,33.848,33.29,38.093,37.59,35.626999999999995
34.994,33.885999999999996,33.256,38.167,37.561,35.593
35.150999999999996,33.94,33.225,38.222,37.533,35.555
35.306999999999995,34.012,33.199,38.259,37.506,35.516
35.459,34.101,33.178000000000004,38.281,37.48,35.476
35.605,34.209,33.167,38.292,37.457,35.435
35.744,34.335,33.167,38.292,37.438,35.395
35.874,34.479,33.181999999999995,38.284,37.422,35.356
35.995,34.638000000000005,33.214,38.269,37.409,35.317
36.104,34.81,33.265,38.248000000000005,37.399,35.279
36.203,34.993,33.338,38.22,37.391,35.243
36.29,35.183,33.433,38.187,37.384,35.209
36.364000000000004,35.378,33.553000000000004,38.149,37.376,35.177
36.427,35.573,33.696999999999996,38.103,37.366,35.147
36.479,35.766999999999996,33.863,38.051,37.356,35.119
36.519,35.955999999999996,34.052,37.993,37.343,35.093
36.55,36.137,34.262,37.929,37.329,35.067
36.571999999999996,36.309,34.491,37.86,37.314,35.042
36.585,36.469,34.736,37.787,37.298,35.019
36.592,36.618,34.995,37.711999999999996,37.281,34.996
36.593,36.754,35.264,37.635999999999996,37.260999999999996,34.973
36.588,36.876999999999995,35.539,37.558,37.24,34.95
36.579,36.986,35.815,37.481,37.215,34.926
36.565,37.082,36.09,37.404,37.188,34.903
36.546,37.165,36.358000000000004,37.328,37.156,34.879
36.523,37.234,36.615,37.255,37.121,34.856
36.498000000000005,37.289,36.857,37.183,37.082,34.834
36.471,37.330999999999996,37.080999999999996,37.115,37.04,34.813
36.443000000000005,37.361,37.284,37.047,36.994,34.792
36.415,37.379,37.464,36.98,36.946,34.771
36.387,37.385999999999996,37.619,36.911,36.895,34.751
36.359,37.384,37.749,36.841,36.844,34.73
36.330999999999996,37.374,37.853,36.769,36.791,34.708
36.301,37.356,37.933,36.696,36.736999999999995,34.685
36.27,37.333,37.99,36.623000000000005,36.68,34.661
36.236999999999995,37.306,38.027,36.549,36.621,34.635
36.2,37.275,38.045,36.476,36.56,34.608000000000004
36.159,37.243,38.046,36.405,36.495,34.58
36.115,37.209,38.034,36.336999999999996,36.427,34.549
36.068000000000005,37.173,38.01,36.274,36.355,34.515
36.019,37.135,37.976,36.216,36.281,34.478
35.969,37.096,37.934,36.163000000000004,36.205999999999996,34.44
35.919000000000004,37.054,37.884,36.113,36.13,34.403
35.868,37.01,37.829,36.067,36.053000000000004,34.371
35.818000000000005,36.964,37.769,36.023,35.978,34.346
35.77,36.916,37.705999999999996,35.983000000000004,35.903,34.330999999999996
35.724000000000004,36.867,37.64,35.946,35.829,34.330999999999996
35.68,36.816,37.571,35.913000000000004,35.757,34.346
35.64,36.763000000000005,37.499,35.884,35.686,34.381
35.603,36.708,37.425,35.858000000000004,35.618,34.437
35.57,36.650999999999996,37.347,35.838,35.553000000000004,34.516
35.541,36.593,37.265,35.823,35.49,34.619
35.516999999999996,36.534,37.181,35.812,35.431,34.746
35.496,36.474000000000004,37.093,35.806,35.374,34.895
35.479,36.413000000000004,37.004,35.803000000000004,35.32,35.067
35.466,36.351,36.914,35.803000000000004,35.268,35.259
35.457,36.29,36.825,35.805,35.217,35.468
35.45,36.23,36.736999999999995,35.806999999999995,35.168,35.692
35.446,36.173,36.648,35.806999999999995,35.12,35.926
35.444,36.119,36.561,35.805,35.074,36.165
35.443000000000005,36.068000000000005,36.474000000000004,35.799,35.03,36.405
35.443000000000005,36.021,36.388000000000005,35.788000000000004,34.989000000000004,36.644
35.443000000000005,35.978,36.303000000000004,35.773,34.95,36.876
35.443000000000005,35.938,36.221,35.754,34.913000000000004,37.1
35.442,35.903,36.14,35.734,34.878,37.311
35.44,35.871,36.063,35.711999999999996,34.844,37.508
35.438,35.843,35.989000000000004,35.69,34.812,37.689
35.435,35.817,35.919000000000004,35.669000000000004,34.777,37.852
35.431999999999995,35.794000000000004,35.852,35.648,34.741,37.996
35.428000000000004,35.772,35.788000000000004,35.626999999999995,34.702,38.119
35.425,35.751999999999995,35.728,35.606,34.66,38.222
35.423,35.733000000000004,35.671,35.584,34.615,38.305
35.423,35.715,35.618,35.56,34.567,38.37
35.424,35.696999999999996,35.568000000000005,35.534,34.515,38.417
35.428000000000004,35.68,35.522,35.506,34.46,38.449
35.435,35.664,35.48,35.476,34.403,38.466
35.442,35.649,35.441,35.444,34.345,38.469
35.451,35.634,35.406,35.411,34.285,38.46
35.46,35.622,35.374,35.378,34.226,38.441
35.469,35.611,35.345,35.344,34.167,38.411
35.476,35.603,35.317,35.311,34.111,38.373000000000005
35.481,35.598,35.294000000000004,35.279,34.056999999999995,38.328
35.484,35.595,35.273,35.249,34.008,38.277
35.483000000000004,35.595,35.255,35.22,33.965,38.223
35.48,35.597,35.24,35.191,33.928000000000004,38.165
35.473,35.601,35.228,35.162,33.900999999999996,38.105
35.461999999999996,35.607,35.218,35.132,33.883,38.043
35.446999999999996,35.614000000000004,35.211999999999996,35.101,33.876999999999995,37.98
35.428000000000004,35.62,35.209,35.066,33.883,37.916
35.405,35.625,35.209,35.029,33.904,37.852
35.38,35.628,35.213,34.989000000000004,33.942,37.789
35.351,35.629,35.219,34.946999999999996,34.001,37.726
35.319,35.628,35.228,34.903,34.084,37.662
35.285,35.624,35.236,34.859,34.192,37.598
35.247,35.618,35.244,34.815,34.327,37.533
35.207,35.609,35.251,34.771,34.488,37.467
35.166,35.596,35.257,34.73,34.675,37.400999999999996
35.123000000000005,35.58,35.26,34.689,34.888000000000005,37.335
35.08,35.56,35.262,34.648,35.122,37.269
35.037,35.535,35.260999999999996,34.606,35.376999999999995,37.202
34.996,35.506,35.258,34.562,35.648,37.135
34.958,35.472,35.253,34.516,35.933,37.068000000000005
34.922,35.436,35.245,34.467,36.228,37.001999999999995
34.89,35.398,35.234,34.415,36.528,36.935
34.861,35.359,35.221,34.361,36.830999999999996,36.868
34.836999999999996,35.319,35.205,34.305,37.132,36.803000000000004
