Trial 1:0back,Trial 2:2back,Trial 3:3back,Trial 4:2back,Trial 5:3back,Trial 6:0back
35.294000000000004,35.173,35.576,34.955999999999996,35.064,32.286
35.288000000000004,35.184,35.577,34.936,35.056,32.294000000000004
35.282,35.191,35.577,34.918,35.044000000000004,32.321999999999996
35.279,35.193000000000005,35.576,34.903,35.03,32.37
35.278,35.19,35.574,34.89,35.013000000000005,32.442
35.278,35.184,35.571999999999996,34.88,34.993,32.533
35.279,35.176,35.57,34.871,34.972,32.645
35.282,35.167,35.569,34.861,34.95,32.773
35.287,35.159,35.567,34.851,34.926,32.917
35.291,35.150999999999996,35.566,34.841,34.902,33.073
35.296,35.145,35.563,34.83,34.878,33.236999999999995
35.301,35.141,35.558,34.819,34.855,33.408
35.305,35.137,35.551,34.808,34.833,33.580999999999996
35.309,35.133,35.54,34.799,34.814,33.757
35.313,35.13,35.525,34.79,34.797,33.931999999999995
35.315,35.126,35.505,34.783,34.783,34.106
35.317,35.123000000000005,35.48,34.778,34.77,34.279
35.318000000000005,35.12,35.451,34.773,34.760999999999996,34.45
35.317,35.117,35.419000000000004,34.768,34.755,34.618
35.316,35.114000000000004,35.385999999999996,34.763000000000005,34.751,34.782
35.313,35.111999999999995,35.354,34.756,34.75,34.94
35.311,35.11,35.325,34.747,34.749,35.091
35.308,35.109,35.299,34.736,34.749,35.233000000000004
35.306,35.108000000000004,35.277,34.722,34.749,35.365
35.303000000000004,35.108000000000004,35.260999999999996,34.707,34.749,35.486999999999995
35.3,35.107,35.249,34.69,34.751,35.597
35.296,35.106,35.239000000000004,34.673,34.757,35.696999999999996
35.291,35.104,35.231,34.656,34.769,35.787
35.285,35.1,35.224000000000004,34.64,34.789,35.867
35.278,35.092,35.215,34.623000000000005,34.816,35.937
35.27,35.082,35.207,34.607,34.853,35.997
35.260999999999996,35.069,35.196999999999996,34.59,34.897,36.048
35.251,35.053000000000004,35.187,34.571999999999996,34.949,36.089
35.241,35.035,35.177,34.552,35.009,36.119
35.231,35.014,35.165,34.531,35.076,36.14
35.22,34.99,35.153,34.508,35.149,36.150999999999996
35.209,34.964,35.141,34.484,35.228,36.155
35.196999999999996,34.938,35.13,34.46,35.311,36.152
35.183,34.912,35.119,34.435,35.394,36.141999999999996
35.169000000000004,34.889,35.11,34.411,35.478,36.128
35.153,34.869,35.103,34.389,35.561,36.109
35.139,34.852,35.098,34.368,35.643,36.086
35.126,34.836999999999996,35.095,34.349000000000004,35.722,36.059
35.116,34.825,35.093,34.33,35.799,36.029
35.109,34.814,35.091,34.313,35.874,35.996
35.104,34.804,35.089,34.296,35.946,35.961999999999996
35.102,34.794000000000004,35.085,34.281,36.014,35.926
35.102,34.783,35.078,34.266999999999996,36.078,35.89
35.104,34.772,35.068000000000005,34.255,36.135999999999996,35.855
35.107,34.760999999999996,35.054,34.246,36.188,35.82
35.111,34.75,35.037,34.241,36.232,35.787
35.116,34.74,35.016999999999996,34.242,36.27,35.755
35.12,34.73,34.993,34.253,36.302,35.723
35.123000000000005,34.723,34.968,34.273,36.328,35.694
35.125,34.719,34.941,34.304,36.35,35.666
35.124,34.718,34.913000000000004,34.349000000000004,36.368,35.64
35.121,34.722,34.885,34.409,36.383,35.617
35.115,34.727,34.857,34.484,36.393,35.596
35.108000000000004,34.735,34.830999999999996,34.573,36.4,35.577
35.099000000000004,34.743,34.806999999999995,34.677,36.403,35.559
35.09,34.751,34.785,34.794000000000004,36.403,35.542
35.080999999999996,34.759,34.766999999999996,34.922,36.400999999999996,35.525
35.073,34.766999999999996,34.751,35.062,36.396,35.506
35.066,34.774,34.738,35.211,36.39,35.486
35.059,34.782,34.728,35.368,36.381,35.464
35.053000000000004,34.789,34.721,35.53,36.367,35.44
35.049,34.795,34.716,35.695,36.346,35.413000000000004
35.044000000000004,34.799,34.711999999999996,35.86,36.317,35.384
35.04,34.801,34.709,36.023,36.282,35.353
35.035,34.8,34.705999999999996,36.18,36.241,35.321
35.029,34.798,34.703,36.329,36.199,35.289
35.021,34.794000000000004,34.699,36.466,36.158,35.258
35.012,34.789,34.693000000000005,36.591,36.122,35.229
35.001,34.784,34.685,36.703,36.091,35.204
34.988,34.777,34.675,36.801,36.066,35.181999999999995
34.974000000000004,34.77,34.663000000000004,36.885999999999996,36.049,35.165
34.96,34.76,34.649,36.957,36.037,35.153
34.946999999999996,34.75,34.633,37.016,36.03,35.144
34.934,34.739000000000004,34.617,37.064,36.027,35.139
34.924,34.728,34.6,37.102,36.028,35.137
34.914,34.718,34.582,37.131,36.031,35.135999999999996
34.906,34.708,34.564,37.150999999999996,36.038000000000004,35.135999999999996
34.898,34.699,34.547,37.163000000000004,36.047,35.135
34.891,34.69,34.53,37.167,36.059,35.133
34.884,34.681,34.514,37.163000000000004,36.07,35.13
34.876999999999995,34.674,34.499,37.154,36.080999999999996,35.126
34.869,34.667,34.483000000000004,37.14,36.089,35.121
34.861999999999995,34.661,34.467,37.123000000000005,36.093,35.115
34.854,34.656,34.45,37.106,36.094,35.108000000000004
34.847,34.65,34.431999999999995,37.089,36.091,35.1
34.838,34.643,34.411,37.073,36.084,35.091
34.828,34.634,34.388000000000005,37.06,36.071999999999996,35.078
34.817,34.623000000000005,34.363,37.051,36.056,35.063
34.804,34.61,34.336999999999996,37.047,36.034,35.044000000000004
34.791,34.597,34.309,37.046,36.008,35.024
34.782,34.583,34.283,37.049,35.979,35.001
34.775999999999996,34.57,34.258,37.054,35.95,34.978
34.772,34.558,34.236999999999995,37.06,35.921,34.954
34.771,34.549,34.219,37.066,35.895,34.93
34.77,34.543,34.204,37.071,35.873000000000005,34.906
34.769,34.539,34.194,37.074,35.853,34.881
34.766,34.537,34.187,37.075,35.836,34.856
34.76,34.536,34.183,37.073,35.821,34.830999999999996
34.751,34.537,34.181999999999995,37.068000000000005,35.808,34.805
34.738,34.538000000000004,34.181999999999995,37.062,35.798,34.779
34.722,34.54,34.185,37.054,35.791,34.753
34.705,34.542,34.19,37.045,35.786,34.727
34.686,34.544000000000004,34.196999999999996,37.034,35.783,34.699
34.668,34.545,34.208,37.021,35.781,34.669000000000004
34.649,34.544000000000004,34.224000000000004,37.007,35.782,34.637
34.631,34.541,34.245,36.993,35.784,34.604
34.613,34.538000000000004,34.275,36.977,35.79,34.569
34.595,34.533,34.314,36.96,35.797,34.533
34.579,34.528,34.364000000000004,36.942,35.806,34.497
34.564,34.523,34.425,36.922,35.816,34.461999999999996
34.552,34.519,34.497,36.9,35.827,34.428000000000004
34.542,34.513000000000005,34.582,36.878,35.839,34.395
34.536,34.505,34.677,36.855,35.85,34.364000000000004
34.532,34.496,34.782,36.832,35.861,34.334
34.531,34.485,34.895,36.809,35.872,34.306
34.531,34.472,35.014,36.787,35.882,34.279
34.533,34.46,35.137,36.766999999999996,35.893,34.253
34.536,34.448,35.260999999999996,36.749,35.904,34.227
34.54,34.438,35.383,36.735,35.917,34.202
34.545,34.429,35.501999999999995,36.725,35.93,34.176
34.55,34.421,35.614000000000004,36.717,35.945,34.150999999999996
34.553000000000004,34.414,35.719,36.71,35.959,34.126999999999995
34.555,34.409,35.814,36.705999999999996,35.972,34.103
34.556,34.406,35.898,36.702,35.983000000000004,34.079
34.554,34.404,35.973,36.698,35.989000000000004,34.056
34.551,34.404,36.037,36.694,35.992,34.032
34.547,34.405,36.091,36.688,35.989000000000004,34.01
34.541,34.408,36.135999999999996,36.681999999999995,35.981,33.99
34.535,34.411,36.174,36.674,35.968,33.971
34.53,34.419000000000004,36.205,36.665,35.95,33.954
34.532,34.433,36.232,36.656,35.929,33.94
34.539,34.451,36.255,36.647,35.903,33.926
34.551,34.472,36.275999999999996,36.635999999999996,35.873000000000005,33.913000000000004
34.565,34.492,36.296,36.624,35.839,33.9
34.579,34.51,36.315,36.61,35.804,33.885999999999996
34.59,34.524,36.334,36.594,35.769,33.871
34.597,34.533,36.353,36.578,35.733000000000004,33.854
34.599000000000004,34.537,36.373000000000005,36.562,35.699,33.836
34.595,34.536,36.393,36.545,35.664,33.818000000000005
34.584,34.53,36.413000000000004,36.528,35.63,33.8
34.568000000000005,34.52,36.431999999999995,36.510999999999996,35.594,33.783
34.545,34.506,36.449,36.495,35.556999999999995,33.765
34.519,34.49,36.465,36.483000000000004,35.518,33.749
34.49,34.471,36.477,36.473,35.478,33.733000000000004
34.459,34.452,36.485,36.466,35.438,33.717
34.43,34.431,36.49,36.461999999999996,35.399,33.703
34.403,34.409,36.491,36.461,35.361,33.688
34.379,34.387,36.488,36.463,35.327,33.674
34.359,34.366,36.483000000000004,36.466,35.297,33.659
34.343,34.347,36.476,36.469,35.271,33.643
34.33,34.329,36.47,36.47,35.248000000000005,33.624
34.321,34.311,36.461999999999996,36.47,35.229,33.602
34.315,34.294000000000004,36.455,36.467,35.213,33.577
34.311,34.278,36.446999999999996,36.461,35.201,33.549
34.309,34.263000000000005,36.44,36.45,35.192,33.518
34.306,34.25,36.434,36.435,35.186,33.486
34.304,34.24,36.43,36.417,35.183,33.455
34.301,34.234,36.426,36.394,35.181,33.424
34.297,34.231,36.425,36.366,35.181999999999995,33.395
34.291,34.231,36.425,36.334,35.183,33.369
34.283,34.233000000000004,36.428000000000004,36.296,35.184,33.346
34.275,34.236999999999995,36.431999999999995,36.253,35.185,33.327
34.268,34.242,36.437,36.205999999999996,35.187,33.312
34.263000000000005,34.247,36.445,36.156,35.19,33.3
34.260999999999996,34.251999999999995,36.452,36.103,35.194,33.292
34.263000000000005,34.257,36.459,36.048,35.199,33.284
34.27,34.260999999999996,36.464,35.993,35.204,33.275999999999996
34.283,34.266,36.465,35.937,35.208,33.268
34.301,34.27,36.463,35.883,35.21,33.259
34.326,34.275,36.457,35.832,35.21,33.249
34.357,34.28,36.446999999999996,35.785,35.209,33.236999999999995
34.395,34.286,36.431,35.741,35.205,33.222
34.438,34.292,36.41,35.702,35.201,33.207
34.486999999999995,34.301,36.384,35.667,35.196,33.191
34.541,34.313,36.356,35.637,35.191,33.176
34.599000000000004,34.33,36.325,35.611999999999995,35.187,33.163000000000004
34.661,34.353,36.294000000000004,35.592,35.184,33.153
34.725,34.384,36.263000000000005,35.576,35.18,33.145
34.789,34.423,36.233000000000004,35.565,35.176,33.138000000000005
34.853,34.472,36.204,35.556999999999995,35.172,33.131
34.913000000000004,34.529,36.179,35.551,35.166,33.124
34.968,34.592,36.157,35.545,35.159,33.117
35.019,34.66,36.138000000000005,35.54,35.150999999999996,33.108000000000004
35.063,34.729,36.124,35.534,35.143,33.099000000000004
35.1,34.799,36.114000000000004,35.527,35.135,33.088
35.13,34.867,36.108000000000004,35.519,35.129,33.075
35.153,34.931,36.104,35.510999999999996,35.125,33.06
35.17,34.992,36.103,35.501,35.124,33.044000000000004
35.183,35.048,36.104,35.491,35.125,33.025999999999996
35.193000000000005,35.1,36.107,35.478,35.129,33.006
35.201,35.145,36.111,35.464,35.134,32.984
35.207,35.184,36.116,35.446999999999996,35.14,32.96
35.211,35.214,36.122,35.427,35.148,32.935
35.213,35.236999999999995,36.128,35.405,35.155,32.911
35.215,35.253,36.135999999999996,35.38,35.163000000000004,32.889
35.215,35.262,36.143,35.352,35.169000000000004,32.868
35.213,35.266,36.148,35.321999999999996,35.174,32.85
35.209,35.266999999999996,36.152,35.29,35.175,32.834
35.204,35.265,36.153,35.258,35.174,32.82
35.196999999999996,35.260999999999996,36.150999999999996,35.225,35.17,32.806999999999995
35.189,35.258,36.146,35.193000000000005,35.163000000000004,32.793
35.178000000000004,35.254,36.137,35.16,35.155,32.779
35.164,35.251999999999995,36.124,35.128,35.145,32.764
35.149,35.251,36.105,35.097,35.134,32.747
35.133,35.251,36.082,35.069,35.12,32.728
35.118,35.251999999999995,36.055,35.042,35.105,32.707
35.104,35.255,36.025,35.019,35.086,32.687
35.093,35.259,35.993,34.998000000000005,35.064,32.667
35.085,35.260999999999996,35.961,34.981,35.04,32.649
35.080999999999996,35.263000000000005,35.929,34.966,35.013000000000005,32.633
35.078,35.264,35.898,34.955,34.984,32.622
35.079,35.265,35.871,34.949,34.954,32.617
35.082,35.265,35.847,34.946,34.924,32.622
35.086999999999996,35.265,35.829,34.946999999999996,34.895,32.638000000000005
35.093,35.266,35.816,34.951,34.87,32.668
35.101,35.266,35.808,34.955999999999996,34.85,32.715
35.108000000000004,35.265,35.804,34.961,34.835,32.78
35.115,35.265,35.804,34.965,34.824,32.864000000000004
35.122,35.265,35.806,34.967,34.817,32.966
35.126,35.264,35.808,34.967,34.812,33.086999999999996
35.13,35.264,35.809,34.963,34.808,33.225
35.131,35.265,35.806999999999995,34.955999999999996,34.804,33.381
35.131,35.266999999999996,35.802,34.946999999999996,34.798,33.551
35.129,35.268,35.794000000000004,34.935,34.792,33.735
35.125,35.266999999999996,35.785,34.92,34.786,33.929
35.118,35.263000000000005,35.774,34.904,34.779,34.13
35.111,35.255,35.763000000000005,34.885,34.774,34.336
35.101,35.243,35.753,34.864000000000004,34.769,34.543
35.09,35.229,35.744,34.841,34.765,34.748000000000005
35.077,35.211999999999996,35.736999999999995,34.818000000000005,34.764,34.948
35.062,35.194,35.733000000000004,34.794000000000004,34.768,35.14
35.044000000000004,35.175,35.73,34.769,34.778,35.323
35.025999999999996,35.155,35.729,34.744,34.797,35.494
35.008,35.135,35.73,34.718,34.826,35.654
34.99,35.115,35.731,34.693000000000005,34.867,35.802
34.975,35.094,35.733000000000004,34.669000000000004,34.919000000000004,35.935
34.963,35.075,35.736,34.645,34.982,36.055
34.953,35.056,35.736999999999995,34.622,35.055,36.16
34.946999999999996,35.039,35.736999999999995,34.6,35.135999999999996,36.251
34.944,35.023,35.734,34.578,35.225,36.327
34.944,35.007,35.729,34.556,35.321,36.389
34.948,34.994,35.721,34.536,35.422,36.438
34.955,34.983000000000004,35.71,34.516999999999996,35.529,36.475
34.965,34.974000000000004,35.696,34.5,35.639,36.501
34.978,34.969,35.678000000000004,34.485,35.75,36.516999999999996
34.992,34.967,35.657,34.474000000000004,35.859,36.524
35.007,34.967,35.632,34.467,35.964,36.524
35.021,34.97,35.605,34.466,36.063,36.516
35.034,34.974000000000004,35.576,34.471,36.152,36.501
35.046,34.979,35.545,34.486,36.232,36.482
35.054,34.986,35.514,34.513000000000005,36.302,36.459
35.059,34.994,35.485,34.554,36.363,36.435
35.06,35.003,35.457,34.611,36.415,36.411
35.056999999999995,35.01,35.433,34.686,36.46,36.389
35.049,35.016,35.412,34.779,36.498000000000005,36.369
35.037,35.02,35.395,34.89,36.53,36.351
35.02,35.023,35.382,35.016999999999996,36.558,36.336999999999996
35.001999999999995,35.025,35.372,35.158,36.580999999999996,36.325
34.981,35.027,35.364000000000004,35.31,36.601,36.316
34.961,35.03,35.353,35.472,36.616,36.309
34.943000000000005,35.032,35.339,35.64,36.626999999999995,36.305
34.928000000000004,35.034,35.321,35.81,36.633,36.303000000000004
34.916,35.035,35.3,35.979,36.635,36.304
34.909,35.036,35.275,36.145,36.633,36.306
34.907,35.035,35.247,36.305,36.628,36.309
34.908,35.033,35.218,36.459,36.622,36.312
34.913000000000004,35.028,35.187,36.605,36.614000000000004,36.313
34.92,35.019,35.155,36.742,36.606,36.31
34.927,35.008,35.124,36.87,36.597,36.303000000000004
34.934,34.994,35.095,36.988,36.589,36.291
34.939,34.977,35.069,37.098,36.582,36.273
34.942,34.959,35.046,37.196,36.577,36.249
34.942,34.94,35.027,37.283,36.574,36.22
34.939,34.921,35.013000000000005,37.358000000000004,36.571999999999996,36.187
34.934,34.905,35.003,37.421,36.571999999999996,36.15
34.927,34.893,34.997,37.472,36.574,36.11
34.919000000000004,34.884,34.994,37.512,36.575,36.067
34.91,34.879,34.995,37.542,36.577,36.024
34.902,34.876,34.997,37.563,36.578,35.98
34.896,34.876,34.999,37.576,36.577,35.938
34.891999999999996,34.876999999999995,35.0,37.583,36.574,35.898
34.89,34.879,34.998000000000005,37.584,36.567,35.861
34.889,34.883,34.993,37.580999999999996,36.558,35.827
34.891,34.887,34.985,37.574,36.546,35.798
34.891999999999996,34.891,34.973,37.564,36.533,35.771
34.894,34.893,34.955999999999996,37.551,36.518,35.748000000000005
34.896,34.893,34.936,37.536,36.503,35.726
34.897,34.89,34.913000000000004,37.518,36.488,35.705999999999996
34.895,34.884,34.887,37.498000000000005,36.472,35.687
34.89,34.876,34.859,37.476,36.455999999999996,35.671
34.884,34.867,34.829,37.453,36.439,35.657
34.876,34.857,34.798,37.43,36.421,35.644
34.87,34.846,34.766999999999996,37.408,36.402,35.635
34.865,34.834,34.735,37.388000000000005,36.382,35.628
34.861999999999995,34.824,34.703,37.37,36.361999999999995,35.622
34.86,34.814,34.672,37.356,36.341,35.619
34.858000000000004,34.805,34.641999999999996,37.346,36.321999999999996,35.616
34.856,34.796,34.615,37.338,36.303000000000004,35.613
34.854,34.789,34.588,37.333,36.285,35.611
34.852,34.782,34.563,37.328,36.269,35.609
34.849000000000004,34.775999999999996,34.54,37.324,36.253,35.607
34.844,34.77,34.516999999999996,37.319,36.239000000000004,35.607
34.838,34.764,34.496,37.313,36.228,35.608000000000004
34.830999999999996,34.756,34.478,37.303000000000004,36.221,35.611
34.821999999999996,34.747,34.464,37.29,36.219,35.614000000000004
34.811,34.736999999999995,34.455,37.273,36.221,35.618
34.797,34.727,34.453,37.253,36.227,35.621
34.78,34.715,34.46,37.229,36.236,35.622
34.762,34.696999999999996,34.475,37.201,36.245,35.62
34.742,34.674,34.501999999999995,37.17,36.251999999999995,35.614000000000004
34.722,34.646,34.539,37.137,36.258,35.601
34.702,34.614000000000004,34.588,37.101,36.262,35.583
34.685,34.582,34.648,37.064,36.263000000000005,35.559
34.669000000000004,34.55,34.724000000000004,37.025,36.262,35.528
34.656,34.521,34.817,36.984,36.26,35.492
34.645,34.498000000000005,34.928000000000004,36.941,36.257,35.452
34.635999999999996,34.482,35.053000000000004,36.897,36.253,35.407
34.631,34.473,35.187,36.854,36.249,35.359
34.626999999999995,34.472,35.326,36.813,36.243,35.31
34.623000000000005,34.478,35.465,36.775,36.236,35.26
34.62,34.491,35.6,36.742,36.228,35.213
34.616,34.509,35.726,36.714,36.218,35.168
34.611999999999995,34.532,35.842,36.692,36.207,35.126999999999995
34.606,34.558,35.944,36.675,36.194,35.09
34.6,34.584,36.032,36.663000000000004,36.179,35.056
34.593,34.611,36.105,36.654,36.163000000000004,35.025
34.584,34.635999999999996,36.163000000000004,36.648,36.146,34.997
34.574,34.657,36.207,36.643,36.13,34.97
34.564,34.676,36.238,36.64,36.114000000000004,34.943000000000005
34.554,34.69,36.259,36.637,36.099000000000004,34.917
34.544000000000004,34.701,36.27,36.635999999999996,36.083,34.891
34.535,34.705999999999996,36.272,36.635,36.067,34.864000000000004
34.528,34.708,36.269,36.633,36.05,34.836
34.524,34.705,36.263000000000005,36.63,36.033,34.806999999999995
34.522,34.7,36.254,36.625,36.016,34.775999999999996
34.522,34.692,36.245,36.618,35.999,34.741
34.525,34.683,36.236999999999995,36.61,35.982,34.704
34.531,34.673,36.231,36.599000000000004,35.966,34.663000000000004
34.539,34.664,36.227,36.586999999999996,35.95,34.62
34.55,34.657,36.226,36.571999999999996,35.933,34.576
34.562,34.653,36.228,36.555,35.915,34.535
34.575,34.650999999999996,36.232,36.535,35.897,34.495
34.588,34.650999999999996,36.239000000000004,36.513000000000005,35.876999999999995,34.458
34.601,34.654,36.247,36.489000000000004,35.857,34.426
34.611,34.658,36.255,36.463,35.836,34.397
34.618,34.662,36.263000000000005,36.436,35.813,34.372
34.623000000000005,34.665,36.271,36.41,35.79,34.352
34.624,34.667,36.278,36.385,35.766,34.336999999999996
34.623000000000005,34.668,36.283,36.364000000000004,35.741,34.325
34.619,34.668,36.286,36.344,35.711,34.317
34.614000000000004,34.668,36.287,36.326,35.674,34.312
34.607,34.667,36.285,36.308,35.626999999999995,34.31
34.601,34.665,36.281,36.29,35.573,34.31
34.596,34.662,36.273,36.271,35.515,34.309
34.592,34.657,36.263000000000005,36.249,35.455,34.308
34.592,34.650999999999996,36.249,36.223,35.398,34.306
34.593,34.644,36.235,36.194,35.347,34.302
34.596,34.637,36.219,36.16,35.303000000000004,34.297
34.599000000000004,34.628,36.202,36.124,35.268,34.29
34.603,34.619,36.186,36.084,35.242,34.282
34.607,34.607,36.17,36.04,35.225,34.272
34.61,34.595,36.154,35.995,35.217,34.26
34.611,34.582,36.138000000000005,35.948,35.217,34.247
34.611,34.57,36.123000000000005,35.900999999999996,35.223,34.231
34.609,34.558,36.106,35.854,35.236,34.211999999999996
34.605,34.547,36.09,35.806999999999995,35.254,34.191
34.6,34.537,36.073,35.760999999999996,35.274,34.169000000000004
34.594,34.529,36.055,35.715,35.295,34.145
34.589,34.522,36.037,35.671,35.314,34.121
34.586,34.518,36.016999999999996,35.626999999999995,35.328,34.096
34.585,34.516,35.997,35.584,35.335,34.071
34.586,34.515,35.975,35.541,35.335,34.045
34.592,34.515,35.953,35.498000000000005,35.327,34.019
34.6,34.516,35.93,35.457,35.313,33.992
34.613,34.516999999999996,35.908,35.417,35.295,33.965
34.628,34.516999999999996,35.885999999999996,35.378,35.275,33.936
34.646,34.515,35.864000000000004,35.339,35.253,33.907
34.666,34.510999999999996,35.843,35.302,35.23,33.879
34.686,34.506,35.823,35.266999999999996,35.207,33.852
34.708,34.5,35.803000000000004,35.234,35.184,33.825
34.732,34.492,35.785,35.204,35.16,33.801
34.757,34.485,35.766999999999996,35.175,35.135,33.778
34.784,34.477,35.75,35.147,35.11,33.755
34.813,34.47,35.733000000000004,35.12,35.085,33.734
34.845,34.465,35.716,35.095,35.06,33.713
34.879,34.463,35.698,35.071999999999996,35.035,33.692
34.915,34.464,35.681,35.05,35.009,33.672
34.955,34.468,35.664,35.029,34.982,33.652
34.998000000000005,34.475,35.648,35.009,34.955,33.632
35.043,34.482,35.635,34.988,34.931,33.614000000000004
35.091,34.489000000000004,35.626,34.967,34.908,33.596
35.14,34.496,35.619,34.945,34.889,33.58
35.188,34.501999999999995,35.617,34.922,34.873000000000005,33.566
35.232,34.507,35.618,34.898,34.86,33.555
35.272,34.513000000000005,35.621,34.873000000000005,34.849000000000004,33.546
35.308,34.519,35.628,34.847,34.838,33.54
35.336999999999996,34.527,35.637,34.82,34.827,33.538000000000004
35.359,34.538000000000004,35.647,34.794000000000004,34.816,33.539
35.372,34.554,35.657,34.768,34.804,33.542
35.376999999999995,34.575,35.666,34.742,34.793,33.548
35.373000000000005,34.602,35.673,34.717,34.784,33.553000000000004
35.361,34.635,35.677,34.693000000000005,34.775,33.556999999999995
35.343,34.675,35.676,34.67,34.768,33.559
35.32,34.722,35.67,34.649,34.763000000000005,33.556999999999995
35.295,34.775,35.658,34.629,34.76,33.551
35.268,34.834,35.64,34.611,34.759,33.541
35.241,34.896,35.617,34.594,34.758,33.527
35.217,34.96,35.589,34.577,34.759,33.509
35.195,35.025,35.556999999999995,34.56,34.759,33.489000000000004
35.179,35.088,35.522,34.544000000000004,34.759,33.466
35.167,35.15,35.485,34.527,34.758,33.442
35.159,35.21,35.446999999999996,34.509,34.755,33.418
35.155,35.266,35.408,34.491,34.751999999999995,33.395
35.154,35.318000000000005,35.37,34.472,34.747,33.373000000000005
35.154,35.364000000000004,35.333,34.451,34.742,33.352
35.156,35.405,35.3,34.429,34.735,33.333
35.159,35.44,35.27,34.404,34.728,33.316
35.161,35.468,35.245,34.379,34.719,33.302
35.164,35.49,35.225,34.352,34.711,33.289
35.166,35.508,35.208,34.323,34.701,33.275999999999996
35.169000000000004,35.521,35.194,34.293,34.69,33.262
35.17,35.529,35.183,34.26,34.679,33.248000000000005
35.17,35.534,35.175,34.225,34.667,33.231
35.169000000000004,35.534,35.169000000000004,34.188,34.656,33.214
35.166,35.53,35.166,34.150999999999996,34.646,33.194
35.163000000000004,35.521,35.163000000000004,34.113,34.639,33.174
35.16,35.51,35.16,34.073,34.638000000000005,33.154
35.158,35.496,35.156,34.034,34.644,33.134
35.156,35.482,35.150999999999996,33.994,34.658,33.115
35.155,35.466,35.145,33.955999999999996,34.683,33.097
35.155,35.452,35.135,33.918,34.719,33.079
35.155,35.437,35.123000000000005,33.881,34.766,33.063
35.155,35.424,35.108000000000004,33.845,34.824,33.048
35.157,35.412,35.09,33.81,34.893,33.034
35.159,35.402,35.068000000000005,33.775999999999996,34.971,33.022
35.16,35.395,35.044000000000004,33.745,35.056,33.013000000000005
35.161,35.391,35.018,33.717,35.146,33.006
35.161,35.39,34.99,33.694,35.24,33.003
35.16,35.391999999999996,34.961999999999996,33.675,35.335,33.004
35.157,35.396,34.933,33.661,35.431,33.012
35.150999999999996,35.402,34.906,33.654,35.527,33.029
35.141999999999996,35.409,34.879,33.654,35.622,33.056999999999995
35.131,35.419000000000004,34.855,33.662,35.715,33.099000000000004
35.118,35.431999999999995,34.832,33.677,35.806,33.157
35.104,35.445,34.812,33.699,35.894,33.233000000000004
35.088,35.457,34.793,33.73,35.977,33.328
35.074,35.468,34.777,33.771,36.055,33.444
35.061,35.476,34.762,33.824,36.126,33.578
35.05,35.481,34.749,33.891999999999996,36.19,33.73
35.042,35.484,34.736999999999995,33.973,36.246,33.898
35.038000000000004,35.485,34.727,34.069,36.293,34.079
35.037,35.484,34.717,34.18,36.332,34.269
35.039,35.479,34.709,34.305,36.364000000000004,34.465
35.043,35.471,34.703,34.442,36.39,34.663000000000004
35.048,35.459,34.696999999999996,34.59,36.411,34.86
35.053000000000004,35.444,34.692,34.748000000000005,36.426,35.054
35.056999999999995,35.426,34.688,34.913000000000004,36.436,35.241
35.059,35.407,34.685,35.084,36.441,35.42
35.058,35.387,34.683,35.257,36.441,35.588
35.055,35.367,34.681,35.43,36.436,35.743
35.049,35.346,34.678000000000004,35.601,36.43,35.884
35.043,35.324,34.676,35.766,36.422,36.010999999999996
35.036,35.302,34.672,35.924,36.413000000000004,36.124
35.029,35.28,34.666,36.071,36.403,36.224000000000004
35.024,35.258,34.657,36.207,36.393,36.311
35.019,35.236999999999995,34.647,36.33,36.382,36.385999999999996
35.015,35.219,34.635,36.439,36.37,36.45
35.012,35.205,34.623000000000005,36.535,36.357,36.504
35.01,35.194,34.61,36.618,36.344,36.549
35.008,35.185,34.598,36.688,36.332,36.586999999999996
35.007,35.178000000000004,34.586,36.747,36.32,36.616
35.006,35.173,34.575,36.795,36.309,36.639
35.006,35.171,34.565,36.833,36.299,36.656
35.005,35.17,34.555,36.864000000000004,36.29,36.668
35.005,35.17,34.546,36.889,36.283,36.677
35.005,35.17,34.537,36.911,36.278,36.681
35.004,35.169000000000004,34.53,36.931,36.273,36.683
35.001,35.166,34.523,36.95,36.269,36.681999999999995
34.997,35.162,34.516999999999996,36.969,36.266,36.677
34.991,35.159,34.510999999999996,36.986999999999995,36.262,36.67
34.984,35.156,34.506,37.003,36.257,36.66
34.975,35.155,34.5,37.016,36.253,36.647
34.965,35.156,34.492,37.028,36.247,36.632
34.955,35.157,34.484,37.038000000000004,36.236999999999995,36.616
34.944,35.16,34.476,37.045,36.222,36.599000000000004
34.934,35.163000000000004,34.468,37.049,36.199,36.58
34.924,35.167,34.459,37.052,36.171,36.562
34.916,35.17,34.452,37.051,36.139,36.543
34.909,35.174,34.445,37.048,36.105,36.524
34.905,35.177,34.439,37.042,36.071999999999996,36.505
34.903,35.179,34.434,37.032,36.041,36.486
34.903,35.179,34.428000000000004,37.018,36.012,36.467
34.903,35.178000000000004,34.42,37.001,35.985,36.45
34.903,35.175,34.411,36.98,35.961,36.435
34.9,35.169000000000004,34.400999999999996,36.955,35.94,36.422
34.895,35.162,34.388000000000005,36.926,35.924,36.411
34.888000000000005,35.154,34.374,36.895,35.911,36.400999999999996
34.878,35.145,34.357,36.861,35.903,36.391999999999996
34.867,35.135,34.336999999999996,36.826,35.898,36.382
34.855,35.125,34.316,36.789,35.896,36.37
34.842,35.116,34.294000000000004,36.751999999999995,35.896,36.356
34.829,35.106,34.271,36.716,35.898,36.339
34.817,35.098,34.248000000000005,36.68,35.902,36.314
34.806,35.091,34.225,36.646,35.906,36.278
34.796,35.085,34.202,36.613,35.911,36.231
34.789,35.08,34.181,36.580999999999996,35.916,36.173
34.784,35.077,34.162,36.551,35.921,36.107
34.782,35.074,34.146,36.521,35.924,36.036
34.783,35.07,34.133,36.49,35.926,35.966
34.786,35.067,34.124,36.458,35.926,35.9
34.791,35.062,34.119,36.426,35.926,35.841
34.797,35.056999999999995,34.119,36.395,35.923,35.792
34.803000000000004,35.051,34.125,36.365,35.92,35.755
34.808,35.045,34.139,36.336999999999996,35.916,35.729
34.813,35.038000000000004,34.162,36.311,35.912,35.713
34.815,35.031,34.195,36.288000000000004,35.909,35.705999999999996
34.814,35.024,34.238,36.268,35.907,35.705999999999996
34.812,35.016999999999996,34.291,36.251999999999995,35.906,35.711
34.808,35.012,34.355,36.24,35.905,35.719
34.802,35.007,34.428000000000004,36.23,35.900999999999996,35.729
34.796,35.004,34.508,36.222,35.894,35.738
34.79,35.001999999999995,34.594,36.214,35.883,35.747
34.783,34.999,34.681,36.207,35.867,35.755
34.777,34.997,34.766,36.202,35.848,35.763000000000005
34.771,34.994,34.848,36.199,35.825,35.769
34.765,34.989000000000004,34.927,36.199,35.799,35.773
34.759,34.983000000000004,35.001999999999995,36.2,35.771,35.777
34.754,34.975,35.075,36.204,35.742,35.778
34.748000000000005,34.965,35.145,36.208,35.711999999999996,35.777
34.743,34.955999999999996,35.215,36.215,35.683,35.773
34.736999999999995,34.946999999999996,35.285,36.222,35.655,35.766
34.73,34.939,35.356,36.231,35.628,35.757
34.721,34.931999999999995,35.427,36.239000000000004,35.602,35.747
34.711,34.925,35.498000000000005,36.248000000000005,35.576,35.736999999999995
34.701,34.92,35.569,36.256,35.551,35.726
34.692,34.915,35.635999999999996,36.262,35.525,35.717
34.684,34.912,35.699,36.266999999999996,35.5,35.708
34.677,34.909,35.755,36.269,35.475,35.7
34.672,34.906,35.805,36.268,35.452,35.691
34.669000000000004,34.900999999999996,35.846,36.263000000000005,35.431,35.681
34.668,34.895,35.878,36.256,35.411,35.671
34.67,34.885999999999996,35.902,36.246,35.394,35.657
34.673,34.876,35.918,36.233000000000004,35.379,35.641999999999996
34.676,34.865,35.925,36.218,35.366,35.624
34.679,34.854,35.926,36.2,35.355,35.603
34.68,34.842,35.922,36.18,35.346,35.58
34.68,34.83,35.914,36.157,35.336999999999996,35.553000000000004
34.678000000000004,34.82,35.903,36.132,35.327,35.525
34.674,34.812,35.891,36.104,35.315,35.495
34.668,34.808,35.881,36.071999999999996,35.302,35.463
34.66,34.806999999999995,35.873000000000005,36.036,35.287,35.429
34.65,34.808,35.87,35.997,35.271,35.394
34.638000000000005,34.811,35.871,35.955999999999996,35.255,35.359
34.625,34.813,35.876999999999995,35.914,35.239000000000004,35.324
34.61,34.814,35.888000000000005,35.871,35.223,35.289
34.596,34.813,35.903,35.829,35.205999999999996,35.256
34.580999999999996,34.811,35.922,35.788000000000004,35.189,35.223
34.567,34.806999999999995,35.943000000000005,35.748000000000005,35.17,35.19
34.555,34.801,35.965,35.711,35.152,35.157
34.545,34.793,35.985,35.675,35.132,35.123000000000005
34.537,34.783,36.001,35.641,35.111999999999995,35.09
34.53,34.772,36.010999999999996,35.61,35.09,35.056999999999995
34.524,34.76,36.015,35.580999999999996,35.066,35.024
34.518,34.749,36.012,35.553000000000004,35.041,34.993
34.512,34.739000000000004,36.001999999999995,35.525,35.016,34.963
34.507,34.73,35.986,35.498000000000005,34.991,34.934
34.503,34.723,35.965,35.471,34.969,34.906
34.499,34.719,35.94,35.444,34.949,34.878
34.497,34.715,35.913000000000004,35.418,34.934,34.85
34.492,34.714,35.885,35.391999999999996,34.922,34.821
34.482,34.711999999999996,35.858000000000004,35.366,34.912,34.792
34.466,34.711999999999996,35.832,35.34,34.903,34.764
34.446,34.713,35.809,35.314,34.895,34.736999999999995
34.426,34.715,35.79,35.288000000000004,34.887,34.711
34.408,34.721,35.775,35.262,34.88,34.687
34.393,34.728,35.766,35.235,34.873000000000005,34.663000000000004
34.384,34.738,35.762,35.205999999999996,34.867,34.64
34.381,34.749,35.762,35.175,34.861999999999995,34.619
34.384,34.76,35.766999999999996,35.143,34.857,34.599000000000004
34.393,34.77,35.772,35.111,34.851,34.579
34.407,34.778,35.778,35.079,34.846,34.56
34.422,34.784,35.781,35.048,34.839,34.543
34.439,34.788000000000004,35.782,35.02,34.833,34.527
34.455999999999996,34.789,35.78,34.996,34.826,34.512
34.473,34.787,35.774,34.975,34.82,34.499
34.491,34.781,35.764,34.955999999999996,34.813,34.486
34.510999999999996,34.771,35.75,34.939,34.805,34.473
34.532,34.758,35.731,34.925,34.797,34.459
34.555,34.743,35.708,34.912,34.787,34.444
34.579,34.726,35.681999999999995,34.9,34.775,34.429
34.606,34.708,35.654,34.89,34.763000000000005,34.414
34.635,34.692,35.626,34.879,34.75,34.4
34.667,34.676,35.598,34.869,34.736,34.387
34.702,34.663000000000004,35.571,34.858000000000004,34.723,34.376
34.742,34.650999999999996,35.545,34.845,34.71,34.367
34.786,34.641999999999996,35.522,34.83,34.696,34.36
34.833,34.635,35.501999999999995,34.814,34.681999999999995,34.354
34.883,34.631,35.486,34.795,34.665,34.348
34.934,34.626999999999995,35.474000000000004,34.774,34.645,34.342
34.986999999999995,34.624,35.467,34.751,34.623000000000005,34.335
35.039,34.62,35.464,34.726,34.601,34.327
35.09,34.615,35.464,34.699,34.578,34.316
35.139,34.609,35.468,34.671,34.555,34.303000000000004
35.187,34.603,35.474000000000004,34.641,34.535,34.289
35.232,34.596,35.483000000000004,34.611,34.516999999999996,34.273
35.275,34.589,35.493,34.585,34.501999999999995,34.256
35.314,34.583,35.501999999999995,34.568000000000005,34.488,34.236
35.348,34.576,35.51,34.56,34.476,34.215
35.379,34.57,35.515,34.56,34.465,34.192
35.404,34.565,35.516999999999996,34.565,34.457,34.168
35.423,34.56,35.514,34.576,34.453,34.144
35.436,34.556,35.506,34.59,34.452,34.12
35.445,34.554,35.492,34.603,34.455,34.097
35.45,34.553000000000004,35.471,34.615,34.461999999999996,34.074
35.45,34.559,35.446,34.62,34.475,34.053000000000004
35.446999999999996,34.573,35.417,34.618,34.497,34.032
35.44,34.593,35.385999999999996,34.608000000000004,34.532,34.013000000000005
35.429,34.617,35.355,34.59,34.58,33.994
35.416,34.641999999999996,35.324,34.565,34.639,33.975
35.400999999999996,34.664,35.295,34.534,34.709,33.955999999999996
35.384,34.681999999999995,35.266999999999996,34.498000000000005,34.787,33.938
35.367,34.693000000000005,35.24,34.457,34.872,33.921
35.348,34.698,35.215,34.413000000000004,34.961,33.904
35.33,34.696,35.19,34.369,35.051,33.885999999999996
35.312,34.687,35.166,34.324,35.14,33.868
35.294000000000004,34.672,35.143,34.278,35.226,33.849000000000004
35.277,34.653,35.119,34.235,35.308,33.827
35.263000000000005,34.633,35.095,34.193000000000005,35.385,33.804
35.251,34.614000000000004,35.071,34.156,35.457,33.78
35.243,34.598,35.047,34.125,35.523,33.755
35.239000000000004,34.586999999999996,35.022,34.103,35.586999999999996,33.731
35.24,34.582,34.996,34.092,35.648,33.709
35.245,34.582,34.971,34.095,35.707,33.688
35.253,34.591,34.946,34.113,35.765,33.671
35.264,34.608000000000004,34.924,34.149,35.821,33.657
35.274,34.635999999999996,34.906,34.203,35.878,33.645
35.285,34.673,34.891,34.275999999999996,35.933,33.637
35.296,34.719,34.878,34.367,35.986,33.631
35.305,34.772,34.869,34.477,36.035,33.626
35.312,34.83,34.861,34.604,36.08,33.623000000000005
35.318000000000005,34.891999999999996,34.856,34.747,36.118,33.62
35.32,34.955999999999996,34.852,34.904,36.150999999999996,33.616
35.32,35.023,34.851,35.071999999999996,36.176,33.611
35.317,35.09,34.851,35.25,36.196,33.605
35.312,35.157,34.853,35.431999999999995,36.211999999999996,33.596
35.305,35.221,34.856,35.617,36.223,33.583
35.295,35.283,34.859,35.801,36.231,33.569
35.284,35.34,34.863,35.981,36.236999999999995,33.552
35.271,35.393,34.864000000000004,36.156,36.24,33.536
35.255,35.44,34.863,36.324,36.242,33.52
35.238,35.483000000000004,34.859,36.483000000000004,36.242,33.506
35.22,35.521,34.85,36.631,36.24,33.493
35.201,35.552,34.838,36.766999999999996,36.236999999999995,33.483000000000004
35.18,35.578,34.821999999999996,36.891,36.232,33.473
35.16,35.596,34.804,37.001,36.226,33.463
35.14,35.608000000000004,34.785,37.097,36.218,33.45
35.122,35.613,34.765,37.18,36.207,33.434
35.109,35.613,34.746,37.248000000000005,36.194,33.416
35.1,35.608000000000004,34.726,37.302,36.18,33.396
35.095,35.599000000000004,34.709,37.342,36.166,33.374
35.095,35.586999999999996,34.694,37.37,36.150999999999996,33.352
35.099000000000004,35.573,34.683,37.387,36.137,33.33
35.108000000000004,35.558,34.676,37.395,36.124,33.308
35.119,35.545,34.673,37.394,36.111999999999995,33.287
35.134,35.532,34.674,37.387,36.102,33.266999999999996
35.150999999999996,35.521,34.677,37.375,36.091,33.247
35.17,35.513000000000005,34.681999999999995,37.359,36.08,33.229
35.19,35.506,34.687,37.342,36.067,33.213
35.21,35.501999999999995,34.691,37.324,36.051,33.2
35.23,35.498000000000005,34.694,37.306,36.032,33.192
35.247,35.494,34.695,37.289,36.010999999999996,33.189
35.260999999999996,35.491,34.694,37.275,35.988,33.189
35.269,35.488,34.69,37.262,35.966,33.192
35.273,35.485,34.683,37.253,35.946,33.196999999999996
35.27,35.482,34.674,37.247,35.928000000000004,33.203
35.263000000000005,35.478,34.663000000000004,37.246,35.911,33.21
35.251,35.475,34.65,37.248000000000005,35.894,33.217
35.236,35.472,34.635,37.254,35.875,33.226
35.219,35.469,34.619,37.262,35.853,33.239000000000004
35.201,35.467,34.602,37.272,35.83,33.257
35.184,35.466,34.585,37.282,35.806999999999995,33.283
35.168,35.465,34.568000000000005,37.291,35.785,33.321
35.154,35.465,34.552,37.298,35.763000000000005,33.373000000000005
35.144,35.465,34.536,37.302,35.743,33.44
35.137,35.466,34.521,37.301,35.723,33.523
35.134,35.466,34.506,37.296,35.703,33.625
35.135999999999996,35.466,34.492,37.285,35.681999999999995,33.746
35.141,35.466,34.479,37.268,35.661,33.885999999999996
35.149,35.465,34.468,37.245,35.641,34.044000000000004
35.16,35.461999999999996,34.458,37.217,35.62,34.218
35.171,35.458,34.449,37.183,35.602,34.406
35.181999999999995,35.452,34.44,37.143,35.586999999999996,34.603
35.193000000000005,35.444,34.431,37.099000000000004,35.575,34.806999999999995
35.203,35.434,34.423,37.051,35.567,35.013000000000005
35.21,35.422,34.413000000000004,37.0,35.561,35.217
35.213,35.407,34.404,36.949,35.556999999999995,35.417
35.213,35.391999999999996,34.396,36.899,35.555,35.61
35.209,35.376999999999995,34.387,36.853,35.553000000000004,35.793
35.201,35.361999999999995,34.379,36.812,35.551,35.963
35.19,35.349000000000004,34.371,36.775,35.55,36.12
35.174,35.336,34.363,36.742,35.548,36.262
35.155,35.323,34.354,36.713,35.547,36.388000000000005
35.135,35.308,34.345,36.686,35.546,36.497
35.114000000000004,35.293,34.334,36.662,35.547,36.588
35.092,35.278,34.321,36.639,35.547,36.664
35.07,35.265,34.306999999999995,36.619,35.549,36.724000000000004
35.048,35.255,34.293,36.601,35.551,36.77
35.025,35.249,34.277,36.586999999999996,35.555,36.804
35.001,35.246,34.262,36.577,35.559,36.828
34.978,35.246,34.247,36.569,35.563,36.843
34.955,35.248000000000005,34.233000000000004,36.564,35.566,36.852
34.933,35.253,34.219,36.561,35.569,36.855
34.913000000000004,35.259,34.207,36.559,35.571,36.855
34.896,35.266,34.196,36.556999999999995,35.571,36.852
34.882,35.274,34.186,36.555,35.57,36.848
34.871,35.281,34.177,36.552,35.568000000000005,36.843
34.863,35.288000000000004,34.17,36.547,35.563,36.838
34.858000000000004,35.292,34.164,36.54,35.556,36.833
34.855,35.293,34.161,36.531,35.547,36.829
34.854,35.291,34.16,36.519,35.535,36.825
34.854,35.285,34.164,36.504,35.521,36.823
34.855,35.277,34.175,36.486999999999995,35.505,36.82
34.856,35.268,34.195,36.468,35.486,36.817
34.858000000000004,35.257,34.225,36.448,35.465,36.814
34.861,35.246,34.266999999999996,36.426,35.441,36.809
34.864000000000004,35.235,34.323,36.402,35.415,36.804
34.866,35.224000000000004,34.391999999999996,36.378,35.387,36.798
34.867,35.213,34.474000000000004,36.354,35.356,36.79
34.867,35.204,34.567,36.332,35.326,36.781
34.865,35.196,34.668,36.311,35.296,36.771
34.861,35.19,34.777,36.293,35.268,36.759
34.854,35.185,34.89,36.275999999999996,35.243,36.747
34.844,35.181999999999995,35.005,36.260999999999996,35.22,36.734
34.833,35.178000000000004,35.119,36.247,35.199,36.72
34.821999999999996,35.174,35.23,36.234,35.181,36.705
34.811,35.168,35.336,36.22,35.165,36.69
34.802,35.161,35.436,36.205,35.15,36.676
34.795,35.152,35.527,36.188,35.135999999999996,36.662
34.791,35.141,35.608000000000004,36.167,35.122,36.649
34.792,35.126999999999995,35.68,36.141999999999996,35.108000000000004,36.635
34.795,35.11,35.742,36.113,35.095,36.621
34.802,35.093,35.795,36.08,35.080999999999996,36.605
34.812,35.075,35.838,36.042,35.067,36.586999999999996
34.821999999999996,35.058,35.872,36.001,35.053000000000004,36.567
34.833,35.043,35.9,35.957,35.039,36.544000000000004
34.841,35.031,35.92,35.909,35.024,36.518
34.848,35.021,35.935,35.859,35.008,36.489000000000004
34.853,35.014,35.945,35.806,34.989000000000004,36.455999999999996
34.854,35.008,35.951,35.753,34.967,36.421
34.853,35.003,35.953,35.699,34.944,36.382
34.849000000000004,34.999,35.952,35.645,34.919000000000004,36.342
34.841,34.997,35.948,35.593,34.895,36.301
34.830999999999996,34.997,35.944,35.543,34.872,36.257
34.818000000000005,34.999,35.94,35.495,34.851,36.214
34.806,35.001999999999995,35.937,35.45,34.832,36.171
34.795,35.005,35.936,35.408,34.816,36.131
34.786,35.009,35.936,35.369,34.802,36.095
34.779,35.012,35.938,35.334,34.791,36.064
34.775,35.014,35.942,35.301,34.783,36.041
34.772,35.016,35.948,35.271,34.777,36.025
34.772,35.016999999999996,35.955,35.245,34.775,36.016
34.774,35.018,35.961999999999996,35.222,34.775,36.015
34.775,35.018,35.97,35.204,34.777,36.021
34.775999999999996,35.018,35.976,35.188,34.778,36.032
34.775999999999996,35.016,35.98,35.173,34.778,36.047
34.774,35.013000000000005,35.982,35.16,34.775,36.066
34.77,35.009,35.982,35.146,34.769,36.086
34.766,35.004,35.979,35.131,34.76,36.107
34.760999999999996,34.999,35.973,35.115,34.749,36.128
34.755,34.992,35.964,35.098,34.736,36.146
34.748000000000005,34.985,35.952,35.079,34.721,36.16
34.738,34.978,35.939,35.059,34.705,36.171
34.726,34.97,35.925,35.039,34.687,36.177
34.711999999999996,34.961999999999996,35.912,35.019,34.667,36.178000000000004
34.696999999999996,34.955,35.9,34.998000000000005,34.645,36.175
34.681,34.946999999999996,35.891999999999996,34.978,34.62,36.166
34.665,34.94,35.885,34.958,34.596,36.153
34.652,34.935,35.88,34.938,34.571999999999996,36.134
34.641,34.931,35.876999999999995,34.919000000000004,34.551,36.111
34.633,34.929,35.874,34.899,34.533,36.084
34.626999999999995,34.928000000000004,35.872,34.879,34.519,36.053000000000004
34.623000000000005,34.927,35.868,34.858000000000004,34.507,36.02
34.62,34.925,35.863,34.836,34.498000000000005,35.985
34.618,34.923,35.857,34.814,34.49,35.948
34.617,34.918,35.847,34.794000000000004,34.483000000000004,35.913000000000004
34.617,34.913000000000004,35.834,34.775999999999996,34.476,35.878
34.617,34.907,35.817,34.759,34.47,35.847
34.617,34.900999999999996,35.796,34.745,34.465,35.818000000000005
34.616,34.896,35.769,34.732,34.459,35.792
34.614000000000004,34.89,35.736999999999995,34.721,34.453,35.768
34.611999999999995,34.885,35.704,34.711,34.446,35.744
34.611,34.88,35.67,34.701,34.438,35.719
34.611,34.876,35.637,34.69,34.428000000000004,35.693000000000005
34.615,34.872,35.607,34.677,34.417,35.666
34.622,34.869,35.582,34.662,34.408,35.635
34.634,34.867,35.561,34.644,34.4,35.602
34.653,34.865,35.546,34.622,34.395,35.567
34.68,34.861999999999995,35.535,34.597,34.394,35.529
34.715,34.858000000000004,35.528,34.57,34.398,35.488
34.757,34.854,35.525,34.541,34.406,35.446
34.808,34.849000000000004,35.524,34.512,34.421,35.400999999999996
34.864000000000004,34.842,35.525999999999996,34.484,34.444,35.355
34.925,34.835,35.529,34.458,34.477,35.309
34.991,34.827,35.533,34.434,34.52,35.264
35.056999999999995,34.817,35.536,34.411,34.575,35.221
35.125,34.806999999999995,35.54,34.39,34.639,35.181
35.191,34.797,35.543,34.37,34.711999999999996,35.145
35.253,34.788000000000004,35.545,34.349000000000004,34.794000000000004,35.113
35.311,34.78,35.546,34.328,34.883,35.085
35.364000000000004,34.774,35.546,34.306,34.977,35.06
35.411,34.77,35.543,34.283,35.076,35.039
35.453,34.768,35.538000000000004,34.260999999999996,35.177,35.021
35.491,34.766,35.53,34.241,35.28,35.006
35.525999999999996,34.763000000000005,35.52,34.221,35.384,34.992
35.556,34.760999999999996,35.509,34.203,35.486999999999995,34.979
35.583,34.759,35.497,34.185,35.588,34.967
35.605,34.758,35.484,34.169000000000004,35.686,34.955
35.623000000000005,34.756,35.47,34.155,35.779,34.942
35.635,34.754,35.455999999999996,34.141999999999996,35.865,34.927
35.641999999999996,34.75,35.441,34.132,35.944,34.911
35.643,34.745,35.425,34.125,36.015,34.894
35.64,34.739000000000004,35.408,34.123000000000005,36.077,34.876999999999995
35.631,34.732,35.388000000000005,34.128,36.13,34.86
35.617,34.726,35.367,34.14,36.174,34.843
35.599000000000004,34.72,35.344,34.162,36.211,34.825
35.578,34.713,35.32,34.196,36.241,34.806999999999995
35.552,34.707,35.297,34.244,36.266,34.788000000000004
35.525,34.7,35.273,34.309,36.286,34.768
35.497,34.692,35.251,34.393,36.304,34.749
35.469,34.683,35.231,34.494,36.319,34.73
35.443000000000005,34.674,35.211999999999996,34.611,36.332,34.71
35.418,34.668,35.196,34.745,36.344,34.689
35.396,34.663000000000004,35.181999999999995,34.893,36.355,34.665
35.378,34.66,35.172,35.052,36.363,34.64
35.363,34.659,35.165,35.219,36.37,34.613
35.352,34.66,35.16,35.391,36.374,34.584
35.344,34.663000000000004,35.157,35.563,36.378,34.555
35.34,34.668,35.155,35.733000000000004,36.379,34.525999999999996
35.339,34.676,35.154,35.898,36.379,34.496
35.341,34.686,35.154,36.056999999999995,36.378,34.466
35.344,34.696999999999996,35.155,36.21,36.376,34.435
35.348,34.708,35.156,36.354,36.374,34.403
35.351,34.718,35.156,36.489000000000004,36.372,34.374
35.352,34.725,35.154,36.617,36.369,34.346
35.35,34.729,35.147,36.736999999999995,36.366,34.321
35.346,34.73,35.137,36.848,36.361,34.299
35.341,34.727,35.122,36.95,36.354,34.28
35.334,34.719,35.103,37.042,36.347,34.263000000000005
35.328,34.709,35.079,37.124,36.338,34.25
35.321999999999996,34.696,35.052,37.196,36.328,34.238
35.318000000000005,34.681999999999995,35.023,37.257,36.316,34.228
35.314,34.666,34.992,37.31,36.301,34.22
35.312,34.653,34.963,37.353,36.283,34.213
35.31,34.641999999999996,34.936,37.389,36.263000000000005,34.205999999999996
35.306999999999995,34.634,34.911,37.419000000000004,36.24,34.2
35.304,34.629,34.89,37.445,36.216,34.193000000000005
35.301,34.626,34.873000000000005,37.466,36.192,34.185
35.296,34.625,34.86,37.484,36.168,34.175
35.29,34.623000000000005,34.852,37.499,36.145,34.164
35.283,34.621,34.85,37.51,36.121,34.150999999999996
35.275,34.618,34.851,37.516,36.097,34.135
35.265,34.614000000000004,34.855,37.519,36.071999999999996,34.118
35.251999999999995,34.608000000000004,34.861,37.516999999999996,36.046,34.1
35.239000000000004,34.6,34.866,37.510999999999996,36.019,34.083
35.226,34.59,34.871,37.5,35.991,34.066
35.213,34.58,34.874,37.486999999999995,35.961,34.049
35.202,34.569,34.875,37.472,35.93,34.034
35.193000000000005,34.556999999999995,34.874,37.457,35.898,34.019
35.186,34.546,34.872,37.442,35.867,34.005
35.183,34.535,34.867,37.427,35.836999999999996,33.992
35.181999999999995,34.525999999999996,34.861,37.414,35.811,33.979
35.183,34.52,34.853,37.4,35.788000000000004,33.966
35.186,34.518,34.844,37.389,35.77,33.954
35.191,34.523,34.835,37.378,35.757,33.943000000000005
35.196999999999996,34.533,34.825,37.367,35.749,33.931999999999995
35.203,34.551,34.816,37.356,35.744,33.922
35.21,34.574,34.806,37.345,35.735,33.911
35.218,34.605,34.797,37.334,35.722,33.897
35.225,34.64,34.788000000000004,37.321999999999996,35.701,33.882
35.233000000000004,34.679,34.778,37.308,35.676,33.864000000000004
35.241,34.722,34.766,37.292,35.647,33.844
35.248000000000005,34.769,34.751999999999995,37.273,35.619,33.821
35.256,34.818000000000005,34.736,37.25,35.593,33.797
35.263000000000005,34.87,34.718,37.223,35.573,33.771
35.27,34.924,34.698,37.194,35.559,33.745
35.275999999999996,34.98,34.678000000000004,37.162,35.552,33.717
35.282,35.038000000000004,34.656,37.126999999999995,35.553000000000004,33.69
35.287,35.097,34.634,37.091,35.561,33.662
35.291,35.156,34.613,37.054,35.574,33.635999999999996
35.292,35.214,34.594,37.016,35.591,33.61
35.291,35.27,34.575,36.977,35.613,33.586999999999996
35.287,35.321999999999996,34.56,36.938,35.639,33.566
35.279,35.371,34.547,36.899,35.665,33.547
35.266999999999996,35.417,34.538000000000004,36.86,35.691,33.531
35.254,35.458,34.532,36.821999999999996,35.713,33.516999999999996
35.238,35.495,34.528,36.785,35.731,33.503
35.221,35.525999999999996,34.525,36.751999999999995,35.742,33.489000000000004
35.202,35.552,34.523,36.722,35.749,33.474000000000004
35.181999999999995,35.571,34.521,36.696,35.75,33.458
35.161,35.583,34.519,36.675,35.748000000000005,33.44
35.141999999999996,35.589,34.515,36.658,35.742,33.421
35.123000000000005,35.59,34.510999999999996,36.646,35.733000000000004,33.402
35.107,35.586,34.505,36.637,35.722,33.382
35.092,35.579,34.498000000000005,36.63,35.709,33.364000000000004
35.080999999999996,35.568000000000005,34.49,36.624,35.694,33.348
35.071999999999996,35.555,34.48,36.617,35.677,33.333
35.065,35.539,34.47,36.61,35.658,33.321
35.059,35.52,34.46,36.601,35.638000000000005,33.31
35.055,35.501,34.449,36.59,35.616,33.301
35.05,35.483000000000004,34.438,36.578,35.594,33.293
35.046,35.465,34.426,36.566,35.571999999999996,33.288000000000004
35.041,35.449,34.414,36.552,35.55,33.284
35.035,35.434,34.403,36.538000000000004,35.53,33.284
35.028,35.421,34.391999999999996,36.524,35.510999999999996,33.285
35.02,35.411,34.381,36.509,35.492,33.287
35.010999999999996,35.404,34.37,36.492,35.475,33.291
35.001999999999995,35.4,34.358000000000004,36.474000000000004,35.458,33.294000000000004
34.993,35.4,34.347,36.454,35.442,33.297
34.985,35.403,34.334,36.431999999999995,35.427,33.301
34.977,35.408,34.321,36.41,35.412,33.308
34.97,35.414,34.309,36.387,35.395,33.319
34.963,35.42,34.296,36.364000000000004,35.376999999999995,33.336999999999996
34.958,35.426,34.284,36.343,35.355,33.364000000000004
34.954,35.431,34.273,36.321999999999996,35.330999999999996,33.404
34.953,35.436,34.262,36.303000000000004,35.305,33.458
34.953,35.439,34.253,36.283,35.28,33.528
34.955,35.442,34.246,36.263000000000005,35.255,33.616
34.957,35.444,34.241,36.243,35.231,33.724000000000004
34.959,35.445,34.236999999999995,36.223,35.208,33.85
34.96,35.446,34.236,36.202,35.186,33.995
34.961,35.446,34.238,36.18,35.166,34.159
34.96,35.444,34.244,36.155,35.146,34.338
34.958,35.44,34.254,36.128,35.128,34.531
34.954,35.433,34.269,36.097,35.109,34.735
34.946999999999996,35.424,34.29,36.064,35.092,34.944
34.938,35.413000000000004,34.316,36.025999999999996,35.074,35.155
34.925,35.400999999999996,34.35,35.985,35.058,35.364000000000004
34.91,35.387,34.39,35.939,35.043,35.567
34.894,35.372,34.438,35.889,35.029,35.76
34.876999999999995,35.357,34.493,35.836,35.018,35.943000000000005
34.861999999999995,35.342,34.554,35.783,35.009,36.113
34.848,35.326,34.622,35.729,35.001999999999995,36.269
34.838,35.311,34.695,35.676,34.996,36.41
34.83,35.296,34.774,35.624,34.992,36.536
34.826,35.279,34.856,35.573,34.989000000000004,36.647
34.825,35.262,34.943000000000005,35.524,34.986,36.743
34.826,35.245,35.032,35.477,34.983000000000004,36.826
34.83,35.229,35.124,35.434,34.981,36.895
34.836,35.216,35.217,35.394,34.978,36.953
34.843,35.205,35.31,35.358000000000004,34.975,37.001
34.85,35.198,35.402,35.325,34.972,37.039
34.858000000000004,35.195,35.489000000000004,35.296,34.968,37.071
34.865,35.195,35.57,35.27,34.965,37.098
34.87,35.199,35.645,35.248000000000005,34.963,37.119
34.874,35.205,35.713,35.231,34.961,37.137
34.876,35.214,35.774,35.218,34.961,37.15
34.875,35.225,35.828,35.208,34.96,37.161
34.873000000000005,35.236,35.875,35.201,34.958,37.168
34.87,35.246,35.914,35.195,34.953,37.172
34.867,35.253,35.944,35.19,34.945,37.174
34.864000000000004,35.257,35.966,35.183,34.933,37.174
34.861999999999995,35.259,35.981,35.174,34.918,37.172
34.86,35.258,35.988,35.163000000000004,34.9,37.168
34.86,35.254,35.989000000000004,35.148,34.88,37.161
34.86,35.249,35.986,35.129,34.858000000000004,37.15
34.86,35.242,35.978,35.106,34.836,37.135999999999996
34.861,35.234,35.968,35.08,34.813,37.119
34.861999999999995,35.226,35.958,35.051,34.79,37.099000000000004
34.863,35.218,35.948,35.02,34.77,37.076
34.864000000000004,35.211,35.939,34.986999999999995,34.751999999999995,37.054
34.867,35.204,35.931,34.954,34.736,37.032
34.87,35.198,35.925,34.921,34.723,37.010999999999996
34.875,35.192,35.92,34.889,34.711999999999996,36.992
34.879,35.185,35.917,34.857,34.701,36.973
34.884,35.178000000000004,35.915,34.825,34.691,36.955
34.889,35.169000000000004,35.916,34.794000000000004,34.681,36.937
34.894,35.16,35.918,34.765,34.672,36.919000000000004
34.898,35.149,35.92,34.736999999999995,34.663000000000004,36.899
34.902,35.137,35.922,34.711999999999996,34.657,36.879
34.904,35.126,35.924,34.69,34.652,36.857
34.906,35.114000000000004,35.926,34.67,34.649,36.836
34.906,35.104,35.928000000000004,34.652,34.647,36.813
34.904,35.095,35.928000000000004,34.637,34.645,36.79
34.899,35.086,35.928000000000004,34.624,34.641,36.766
34.893,35.076,35.928000000000004,34.611999999999995,34.634,36.741
34.885,35.066,35.927,34.603,34.624,36.715
34.874,35.056999999999995,35.925,34.593,34.613,36.688
34.863,35.049,35.924,34.583,34.603,36.659
34.85,35.042,35.923,34.573,34.596,36.629
34.836,35.039,35.924,34.561,34.595,36.598
34.821999999999996,35.038000000000004,35.925,34.547,34.602,36.566
34.808,35.04,35.927,34.53,34.619,36.534
34.795,35.043,35.929,34.510999999999996,34.645,36.501999999999995
34.782,35.047,35.931,34.49,34.681,36.471
34.771,35.051,35.93,34.468,34.726,36.44
34.762,35.054,35.926,34.445,34.783,36.409
34.757,35.056,35.918,34.421,34.85,36.379
34.757,35.058,35.905,34.397,34.928000000000004,36.349000000000004
34.764,35.059,35.888000000000005,34.373000000000005,35.015,36.321
34.777,35.058,35.866,34.349000000000004,35.11,36.295
34.795,35.056,35.84,34.327,35.21,36.274
34.82,35.052,35.811,34.304,35.313,36.258
34.85,35.048,35.779,34.281,35.418,36.247
34.885999999999996,35.043,35.745,34.256,35.522,36.239000000000004
34.927,35.038000000000004,35.711999999999996,34.228,35.625,36.235
34.973,35.033,35.68,34.199,35.726,36.233000000000004
35.022,35.028,35.650999999999996,34.168,35.826,36.233000000000004
35.073,35.021,35.626999999999995,34.137,35.923,36.234
35.125,35.012,35.607,34.105,36.015,36.236
35.177,35.001,35.592,34.073,36.102,36.24
35.229,34.99,35.580999999999996,34.04,36.183,36.243
35.28,34.978,35.576,34.008,36.257,36.247
35.33,34.966,35.574,33.976,36.326,36.25
35.378,34.955,35.577,33.946,36.39,36.251999999999995
35.423,34.945,35.584,33.918,36.446999999999996,36.251999999999995
35.466,34.935,35.592,33.891999999999996,36.498000000000005,36.251999999999995
35.506,34.926,35.604,33.869,36.543,36.249
35.543,34.919000000000004,35.616,33.851,36.583,36.246
35.575,34.913000000000004,35.629,33.836999999999996,36.617,36.242
35.603,34.908,35.641999999999996,33.829,36.645,36.236999999999995
35.626999999999995,34.904,35.654,33.829,36.667,36.232
35.647,34.899,35.664,33.838,36.683,36.227
35.665,34.894,35.673,33.859,36.692,36.221
35.68,34.885999999999996,35.678000000000004,33.894,36.696999999999996,36.214
35.691,34.879,35.68,33.944,36.696,36.205
35.698,34.871,35.677,34.009,36.692,36.193000000000005
35.702,34.864000000000004,35.671,34.091,36.684,36.178000000000004
35.701,34.856,35.658,34.189,36.674,36.16
35.696999999999996,34.849000000000004,35.641,34.302,36.663000000000004,36.138000000000005
35.688,34.843,35.618,34.43,36.652,36.113
35.675,34.838,35.59,34.571999999999996,36.641999999999996,36.085
35.659,34.834,35.559,34.724000000000004,36.634,36.055
35.64,34.834,35.525999999999996,34.885999999999996,36.628,36.024
35.62,34.835,35.491,35.056999999999995,36.624,35.991
35.599000000000004,34.836999999999996,35.458,35.234,36.622,35.955999999999996
35.58,34.84,35.427,35.418,36.621,35.919000000000004
35.563,34.842,35.4,35.605,36.621,35.88
35.549,34.842,35.378,35.792,36.623000000000005,35.839
35.537,34.84,35.361999999999995,35.978,36.626,35.797
35.529,34.835,35.35,36.156,36.63,35.751999999999995
35.524,34.828,35.343,36.325,36.635,35.708
35.522,34.818000000000005,35.341,36.48,36.639,35.664
35.521,34.806999999999995,35.341,36.62,36.643,35.621
35.522,34.796,35.344,36.747,36.647,35.578
35.523,34.785,35.346,36.859,36.649,35.536
35.524,34.775999999999996,35.347,36.957,36.65,35.497
35.524,34.769,35.344,37.042,36.649,35.461
35.522,34.765,35.336999999999996,37.115,36.645,35.427
35.519,34.763000000000005,35.324,37.177,36.638000000000005,35.396
35.514,34.764,35.305,37.231,36.629,35.369
35.508,34.768,35.28,37.275999999999996,36.616,35.343
35.499,34.774,35.25,37.313,36.6,35.32
35.489000000000004,34.781,35.216,37.344,36.580999999999996,35.298
35.477,34.788000000000004,35.179,37.37,36.559,35.275999999999996
35.465,34.793,35.141,37.391,36.535,35.254
35.454,34.797,35.102,37.408,36.51,35.232
35.443000000000005,34.798,35.064,37.422,36.484,35.21
35.433,34.797,35.028,37.433,36.46,35.189
35.423,34.794000000000004,34.995,37.441,36.439,35.169000000000004
35.414,34.788000000000004,34.966,37.446,36.419000000000004,35.150999999999996
35.406,34.78,34.943000000000005,37.448,36.402,35.134
35.397,34.771,34.925,37.446999999999996,36.385,35.119
35.39,34.762,34.913000000000004,37.443000000000005,36.368,35.106
35.382,34.754,34.904,37.438,36.348,35.094
35.373000000000005,34.747,34.9,37.43,36.325,35.080999999999996
35.363,34.743,34.9,37.42,36.301,35.068000000000005
35.351,34.741,34.904,37.408,36.275999999999996,35.055
35.338,34.74,34.911,37.395,36.253,35.041
35.323,34.742,34.921,37.381,36.233000000000004,35.025999999999996
35.306999999999995,34.743,34.931,37.366,36.215,35.01
35.292,34.745,34.939,37.351,36.199,34.995
35.277,34.745,34.945,37.335,36.185,34.979
35.264,34.743,34.946999999999996,37.319,36.172,34.961999999999996
35.253,34.739000000000004,34.945,37.302,36.161,34.943000000000005
35.244,34.735,34.94,37.285,36.15,34.923
35.236999999999995,34.73,34.93,37.266999999999996,36.14,34.900999999999996
35.234,34.727,34.916,37.249,36.132,34.876999999999995
35.233000000000004,34.724000000000004,34.899,37.231,36.126,34.854
35.233000000000004,34.722,34.879,37.215,36.121,34.83
35.236,34.718,34.858000000000004,37.2,36.118,34.806999999999995
35.24,34.715,34.836,37.185,36.115,34.786
35.245,34.711,34.815,37.169000000000004,36.113,34.766
35.251,34.709,34.794000000000004,37.153,36.111,34.748000000000005
35.259,34.707,34.775999999999996,37.135,36.109,34.732
35.268,34.705,34.76,37.114000000000004,36.105,34.717
35.277,34.703,34.747,37.088,36.101,34.704
35.286,34.7,34.736999999999995,37.056999999999995,36.096,34.693000000000005
35.293,34.696999999999996,34.731,37.021,36.09,34.681999999999995
35.299,34.695,34.727,36.98,36.084,34.671
35.303000000000004,34.694,34.725,36.937,36.077,34.66
35.305,34.694,34.723,36.893,36.071,34.647
35.304,34.696999999999996,34.72,36.849000000000004,36.065,34.634
35.302,34.703,34.717,36.806,36.06,34.618
35.298,34.711999999999996,34.714,36.765,36.055,34.599000000000004
35.293,34.726,34.71,36.727,36.051,34.577
35.286,34.743,34.707,36.693000000000005,36.046,34.554
35.279,34.765,34.704,36.662,36.039,34.529
35.272,34.793,34.701,36.634,36.032,34.503
35.264,34.826,34.699,36.608000000000004,36.022,34.478
35.256,34.864000000000004,34.696999999999996,36.584,36.012,34.454
35.248000000000005,34.906,34.696,36.563,36.001,34.431999999999995
35.241,34.952,34.694,36.542,35.988,34.413000000000004
35.235,35.0,34.693000000000005,36.524,35.975,34.397
35.23,35.051,34.692,36.508,35.959,34.384
35.224000000000004,35.104,34.689,36.496,35.941,34.373000000000005
35.22,35.159,34.684,36.486999999999995,35.92,34.364000000000004
35.215,35.214,34.677,36.481,35.896,34.356
35.21,35.27,34.668,36.478,35.87,34.35
35.203,35.326,34.657,36.476,35.843,34.344
35.195,35.381,34.645,36.476,35.816,34.336999999999996
35.186,35.433,34.632,36.475,35.787,34.328
35.174,35.483000000000004,34.621,36.475,35.756,34.316
35.161,35.529,34.61,36.473,35.725,34.302
35.146,35.571999999999996,34.6,36.468,35.693000000000005,34.285
35.131,35.609,34.592,36.46,35.663000000000004,34.266999999999996
35.116,35.641,34.584,36.449,35.633,34.248000000000005
35.102,35.667,34.579,36.435,35.605,34.228
35.089,35.687,34.575,36.418,35.579,34.209
35.078,35.701,34.571999999999996,36.398,35.555,34.19
35.069,35.711,34.57,36.374,35.532,34.172
35.062,35.717,34.568000000000005,36.348,35.510999999999996,34.155
35.056,35.721,34.565,36.319,35.491,34.138000000000005
35.052,35.722,34.561,36.288000000000004,35.471,34.123000000000005
35.047,35.72,34.554,36.253,35.45,34.108000000000004
35.043,35.716,34.546,36.216,35.429,34.094
35.038000000000004,35.709,34.535,36.176,35.408,34.08
35.033,35.7,34.523,36.134,35.388000000000005,34.068000000000005
35.027,35.691,34.51,36.091,35.369,34.056
35.02,35.681,34.497,36.048,35.351,34.044000000000004
35.012,35.671,34.484,36.005,35.336999999999996,34.031
35.006,35.662,34.474000000000004,35.961999999999996,35.326,34.016
34.999,35.654,34.464,35.919000000000004,35.316,33.998000000000005
34.994,35.645,34.455999999999996,35.876999999999995,35.306999999999995,33.976
34.99,35.637,34.45,35.836,35.297,33.95
34.986,35.628,34.444,35.798,35.284,33.921
34.985,35.619,34.439,35.762,35.269,33.889
34.985,35.611,34.434,35.727,35.253,33.855
34.986,35.603,34.427,35.694,35.235,33.819
34.986999999999995,35.597,34.418,35.662,35.217,33.783
34.988,35.591,34.407,35.633,35.198,33.747
34.986,35.586999999999996,34.394,35.605,35.18,33.711
34.984,35.583,34.379,35.578,35.162,33.678000000000004
34.981,35.58,34.361,35.552,35.145,33.646
34.977,35.578,34.342,35.525999999999996,35.129,33.618
34.973,35.577,34.323,35.5,35.114000000000004,33.594
34.968,35.577,34.302,35.473,35.1,33.573
34.963,35.579,34.282,35.445,35.088,33.556
34.959,35.580999999999996,34.260999999999996,35.416,35.076,33.543
34.955999999999996,35.584,34.242,35.385999999999996,35.065,33.532
34.955,35.588,34.225,35.355,35.055,33.524
34.955999999999996,35.592,34.211,35.321999999999996,35.044000000000004,33.516
34.959,35.596,34.201,35.289,35.033,33.51
34.964,35.6,34.196,35.255,35.022,33.506
34.97,35.602,34.198,35.221,35.010999999999996,33.503
34.978,35.602,34.205999999999996,35.187,35.001,33.504
34.988,35.598,34.222,35.153,34.993,33.509
34.997,35.59,34.246,35.118,34.986,33.522
35.006,35.58,34.278,35.085,34.981,33.545
35.012,35.567,34.318000000000005,35.052,34.975,33.583
35.016,35.552,34.365,35.021,34.969,33.638000000000005
35.016,35.536,34.418,34.992,34.96,33.715
35.013000000000005,35.52,34.477,34.964,34.948,33.814
35.007,35.504,34.54,34.937,34.934,33.939
35.0,35.488,34.608000000000004,34.912,34.921,34.086999999999996
34.991,35.472,34.68,34.887,34.907,34.259
34.981,35.458,34.755,34.864000000000004,34.896,34.452
34.972,35.444,34.832,34.841,34.885999999999996,34.663000000000004
34.961999999999996,35.431999999999995,34.909,34.819,34.876999999999995,34.89
34.952,35.421,34.985,34.797,34.868,35.125
34.943000000000005,35.41,35.06,34.775999999999996,34.86,35.366
34.933,35.4,35.132,34.756,34.852,35.608000000000004
34.925,35.391,35.202,34.739000000000004,34.844,35.845
34.918,35.384,35.269,34.724000000000004,34.835,36.073
34.912,35.379,35.333,34.711999999999996,34.826,36.288000000000004
34.907,35.376,35.394,34.702,34.816,36.488
34.902,35.376,35.453,34.693000000000005,34.803000000000004,36.672
34.896,35.379,35.51,34.685,34.787,36.836
34.889,35.384,35.565,34.676,34.768,36.981
34.881,35.391999999999996,35.617,34.667,34.746,37.107
34.871,35.4,35.666,34.657,34.724000000000004,37.215
34.859,35.409,35.711999999999996,34.646,34.703,37.305
34.845,35.417,35.755,34.633,34.683,37.376999999999995
34.830999999999996,35.425,35.792,34.618,34.664,37.435
34.816,35.431999999999995,35.825,34.602,34.646,37.481
34.801,35.438,35.852,34.585,34.629,37.518
34.787,35.441,35.873000000000005,34.566,34.613,37.548
34.774,35.441,35.885999999999996,34.546,34.599000000000004,37.573
34.762,35.437,35.891999999999996,34.525,34.588,37.594
34.751,35.429,35.891999999999996,34.501999999999995,34.580999999999996,37.613
34.741,35.417,35.885,34.476,34.58,37.63
34.733000000000004,35.403,35.874,34.446999999999996,34.585,37.647
34.727,35.389,35.859,34.417,34.599000000000004,37.663000000000004
34.723,35.374,35.841,34.385,34.62,37.679
34.722,35.361,35.821999999999996,34.353,34.65,37.695
34.725,35.35,35.802,34.321999999999996,34.69,37.711999999999996
34.73,35.342,35.785,34.292,34.739000000000004,37.73
34.736,35.336999999999996,35.77,34.262,34.797,37.749
34.744,35.335,35.758,34.234,34.863,37.766999999999996
34.751999999999995,35.336,35.75,34.205999999999996,34.938,37.785
34.76,35.339,35.746,34.18,35.02,37.799
34.768,35.341,35.745,34.155,35.109,37.81
34.775999999999996,35.341,35.748000000000005,34.131,35.205999999999996,37.816
34.783,35.339,35.754,34.107,35.308,37.816
34.788000000000004,35.336,35.763000000000005,34.084,35.415,37.81
34.792,35.330999999999996,35.774,34.062,35.525,37.799
34.796,35.325,35.787,34.041,35.638000000000005,37.783
34.799,35.317,35.802,34.02,35.751,37.764
34.804,35.306999999999995,35.819,33.999,35.865,37.741
34.811,35.296,35.836999999999996,33.978,35.976,37.716
34.821999999999996,35.283,35.855,33.957,36.083,37.688
34.836999999999996,35.27,35.872,33.936,36.184,37.658
34.857,35.256,35.887,33.916,36.277,37.624
34.883,35.244,35.898,33.897,36.361,37.588
34.915,35.234,35.905,33.88,36.436,37.55
34.951,35.225,35.906,33.866,36.503,37.512
34.993,35.219,35.902,33.855,36.561,37.472
35.039,35.213,35.891999999999996,33.846,36.611,37.431999999999995
35.09,35.209,35.876,33.84,36.655,37.391999999999996
35.143,35.204,35.853,33.836999999999996,36.693000000000005,37.353
35.199,35.199,35.826,33.834,36.727,37.315
35.256,35.193000000000005,35.795,33.832,36.756,37.279
35.315,35.187,35.76,33.829,36.782,37.245
35.373000000000005,35.18,35.723,33.825,36.804,37.211999999999996
35.43,35.172,35.686,33.819,36.823,37.181
35.485,35.161,35.65,33.811,36.839,37.152
35.536,35.15,35.617,33.8,36.853,37.125
35.583,35.138000000000005,35.586999999999996,33.784,36.865,37.101
35.626999999999995,35.128,35.562,33.766,36.876999999999995,37.079
35.668,35.12,35.542,33.745,36.887,37.059
35.704,35.114000000000004,35.527,33.722,36.896,37.042
35.736999999999995,35.11,35.516,33.696999999999996,36.904,37.025999999999996
35.763000000000005,35.107,35.510999999999996,33.673,36.912,37.010999999999996
35.785,35.102,35.51,33.652,36.919000000000004,36.998000000000005
35.8,35.097,35.512,33.637,36.928000000000004,36.984
35.809,35.091,35.518,33.628,36.936,36.97
35.811,35.084,35.524,33.628,36.945,36.955
35.806,35.077,35.532,33.638000000000005,36.952,36.939
35.795,35.069,35.539,33.662,36.958,36.921
35.777,35.061,35.544000000000004,33.701,36.96,36.902
35.755,35.053000000000004,35.547,33.756,36.96,36.881
35.729,35.045,35.546,33.829,36.958,36.86
35.699,35.037,35.542,33.922,36.954,36.839
35.668,35.029,35.533,34.035,36.948,36.82
35.638000000000005,35.021,35.521,34.169000000000004,36.94,36.803000000000004
35.609,35.014,35.508,34.321999999999996,36.931,36.789
35.585,35.008,35.494,34.491,36.921,36.778
35.567,35.001,35.48,34.673,36.911,36.771
35.555,34.994,35.467,34.864000000000004,36.899,36.766999999999996
35.548,34.988,35.457,35.061,36.887,36.766
35.546,34.982,35.448,35.260999999999996,36.874,36.766999999999996
35.546,34.976,35.442,35.461,36.86,36.77
35.542,34.972,35.437,35.657,36.845,36.775
35.534,34.968,35.433,35.849000000000004,36.829,36.78
35.521,34.965,35.43,36.032,36.815,36.784
35.504,34.963,35.426,36.205999999999996,36.8,36.787
35.486,34.961,35.421,36.37,36.785,36.787
35.468,34.959,35.415,36.523,36.77,36.784
35.453,34.958,35.408,36.664,36.753,36.775999999999996
35.441,34.955999999999996,35.399,36.792,36.734,36.763000000000005
35.435,34.954,35.387,36.906,36.713,36.743
35.433,34.951,35.372,37.006,36.691,36.716
35.436,34.946,35.354,37.092,36.668,36.683
35.445,34.941,35.332,37.162,36.645,36.644
35.457,34.933,35.308,37.218,36.622,36.601
35.473,34.925,35.282,37.259,36.6,36.554
35.491,34.916,35.257,37.288000000000004,36.577,36.504
35.510999999999996,34.908,35.232,37.306999999999995,36.556999999999995,36.453
35.531,34.899,35.208,37.316,36.538000000000004,36.4
35.55,34.891,35.187,37.317,36.521,36.348
35.566,34.883,35.169000000000004,37.312,36.507,36.295
35.578,34.876,35.153,37.3,36.496,36.244
35.585,34.871,35.14,37.286,36.486999999999995,36.194
35.586,34.868,35.129,37.269,36.48,36.147
35.580999999999996,34.867,35.119,37.251,36.473,36.102
35.57,34.867,35.111,37.234,36.467,36.061
35.555,34.868,35.104,37.219,36.46,36.024
35.537,34.869,35.096,37.207,36.452,35.99
35.518,34.872,35.086999999999996,37.199,36.443000000000005,35.96
35.498000000000005,34.875,35.078,37.195,36.433,35.931999999999995
35.48,34.878,35.067,37.195,36.422,35.905
35.463,34.883,35.056,37.196999999999996,36.411,35.879
35.449,34.887,35.045,37.2,36.399,35.854
35.438,34.89,35.036,37.205,36.385999999999996,35.829
35.431,34.89,35.029,37.209,36.373000000000005,35.802
35.428000000000004,34.888000000000005,35.021,37.211999999999996,36.36,35.775
35.43,34.884,35.014,37.214,36.346,35.745
35.435,34.878,35.005,37.213,36.333,35.713
35.445,34.871,34.995,37.211,36.319,35.68
35.457,34.861999999999995,34.984,37.207,36.306,35.643
35.472,34.853,34.973,37.201,36.294000000000004,35.604
35.488,34.844,34.96,37.194,36.281,35.562
35.504,34.836,34.946999999999996,37.184,36.268,35.52
35.52,34.828,34.933,37.171,36.254,35.477
35.534,34.82,34.92,37.157,36.238,35.436
35.545,34.815,34.907,37.141,36.222,35.397
35.554,34.811,34.896,37.123000000000005,36.205999999999996,35.361
35.559,34.808,34.887,37.101,36.189,35.329
35.561,34.806999999999995,34.882,37.075,36.172,35.299
35.56,34.806999999999995,34.879,37.046,36.156,35.271
35.558,34.806999999999995,34.878,37.015,36.139,35.245
35.556,34.806999999999995,34.879,36.981,36.122,35.22
35.553000000000004,34.808,34.879,36.946,36.103,35.196
35.552,34.809,34.878,36.909,36.083,35.173
35.552,34.81,34.875,36.873000000000005,36.062,35.15
35.553000000000004,34.811,34.868,36.836999999999996,36.041,35.128
35.554,34.812,34.857,36.801,36.02,35.106
35.556999999999995,34.811,34.844,36.766,35.999,35.084
35.559,34.81,34.828,36.73,35.978,35.062
35.561,34.806999999999995,34.809,36.695,35.958,35.04
35.562,34.804,34.789,36.66,35.937,35.016999999999996
35.561,34.801,34.769,36.626999999999995,35.916,34.993
35.558,34.798,34.75,36.596,35.896,34.968
35.554,34.794000000000004,34.733000000000004,36.568000000000005,35.875,34.942
35.549,34.789,34.719,36.543,35.855,34.916
35.542,34.786,34.707,36.521,35.836,34.888000000000005
35.532,34.784,34.698,36.503,35.817,34.86
35.519,34.786,34.69,36.49,35.799,34.832
35.504,34.791,34.684,36.481,35.781,34.804
35.486,34.803000000000004,34.68,36.476,35.762,34.777
35.465,34.821,34.675,36.474000000000004,35.742,34.751999999999995
35.442,34.847,34.67,36.473,35.721,34.727
35.418,34.88,34.665,36.474000000000004,35.699,34.704
35.393,34.921,34.659,36.474000000000004,35.675,34.684
35.368,34.968,34.654,36.473,35.652,34.665
35.343,35.02,34.649,36.469,35.628,34.648
35.32,35.077,34.646,36.461,35.605,34.633
35.298,35.138000000000005,34.643,36.45,35.580999999999996,34.618
35.28,35.201,34.641999999999996,36.435,35.556999999999995,34.603
35.264,35.265,34.643,36.418,35.531,34.586999999999996
35.251,35.328,34.645,36.399,35.505,34.569
35.241,35.39,34.648,36.38,35.479,34.549
35.233000000000004,35.449,34.650999999999996,36.361,35.452,34.528
35.229,35.503,34.654,36.342,35.427,34.506
35.227,35.554,34.654,36.325,35.400999999999996,34.484
35.228,35.6,34.652,36.308,35.376,34.461999999999996
35.23,35.641999999999996,34.645,36.29,35.351,34.442
35.234,35.68,34.635,36.271,35.328,34.422
35.239000000000004,35.713,34.62,36.251,35.306,34.403
35.243,35.739000000000004,34.602,36.23,35.286,34.385
35.246,35.758,34.582,36.208,35.271,34.368
35.247,35.771,34.561,36.184,35.258,34.352
35.245,35.779,34.541,36.158,35.246,34.336999999999996
35.24,35.785,34.524,36.13,35.236,34.321999999999996
35.234,35.788000000000004,34.510999999999996,36.101,35.225,34.309
35.227,35.79,34.501,36.071,35.211999999999996,34.296
35.221,35.791,34.495,36.04,35.199,34.285
35.215,35.791,34.494,36.008,35.185,34.273
35.21,35.791,34.496,35.974000000000004,35.171,34.26
35.207,35.789,34.501,35.937,35.156,34.246
35.208,35.788000000000004,34.508,35.897,35.141999999999996,34.228
35.211,35.788000000000004,34.515,35.854,35.128,34.209
35.217,35.789,34.521,35.81,35.113,34.186
35.226,35.79,34.525,35.764,35.098,34.162
35.238,35.791,34.525999999999996,35.716,35.083,34.135
35.251999999999995,35.791,34.524,35.667,35.067,34.107
35.268,35.792,34.519,35.618,35.051,34.078
35.283,35.793,34.512,35.569,35.035,34.049
35.296,35.793,34.503,35.521,35.02,34.018
35.308,35.794000000000004,34.492,35.474000000000004,35.005,33.988
35.316,35.794000000000004,34.481,35.43,34.989000000000004,33.959
35.321,35.792,34.469,35.387,34.974000000000004,33.931999999999995
35.323,35.79,34.458,35.347,34.958,33.907
35.321,35.786,34.448,35.309,34.942,33.885
35.317,35.783,34.439,35.272,34.926,33.866
35.312,35.778,34.431,35.238,34.91,33.849000000000004
35.306,35.774,34.424,35.205,34.895,33.834
35.301,35.771,34.419000000000004,35.173,34.882,33.818000000000005
35.296,35.768,34.414,35.143,34.871,33.802
35.291,35.766,34.408,35.115,34.861,33.784
35.287,35.764,34.400999999999996,35.089,34.851,33.763000000000005
35.285,35.764,34.391999999999996,35.064,34.839,33.741
35.285,35.764,34.382,35.043,34.827,33.717
35.287,35.764,34.371,35.023,34.813,33.693000000000005
35.29,35.765,34.359,35.006,34.798,33.668
35.293,35.765,34.346,34.99,34.785,33.641999999999996
35.295,35.765,34.333,34.974000000000004,34.773,33.617
35.294000000000004,35.764,34.32,34.959,34.763000000000005,33.592
35.291,35.76,34.306,34.943000000000005,34.756,33.568000000000005
35.285,35.756,34.292,34.926,34.75,33.545
35.275999999999996,35.75,34.278,34.907,34.745,33.525
35.265,35.744,34.264,34.885,34.742,33.507
35.251,35.738,34.25,34.863,34.739000000000004,33.491
35.236999999999995,35.731,34.239000000000004,34.841,34.736999999999995,33.478
35.222,35.722,34.231,34.819,34.733000000000004,33.467
35.208,35.713,34.228,34.799,34.726,33.458
35.195,35.703,34.231,34.779,34.716,33.451
35.184,35.694,34.241,34.759,34.701,33.443000000000005
35.174,35.687,34.258,34.739000000000004,34.685,33.435
35.166,35.681999999999995,34.283,34.719,34.667,33.428000000000004
35.159,35.679,34.316,34.699,34.65,33.422
35.154,35.678000000000004,34.356,34.678000000000004,34.632,33.419000000000004
35.15,35.679,34.402,34.656,34.615,33.42
35.146,35.681999999999995,34.454,34.634,34.599000000000004,33.427
35.141999999999996,35.686,34.512,34.611,34.585,33.442
35.135999999999996,35.691,34.574,34.586999999999996,34.571,33.467
35.128,35.695,34.641999999999996,34.564,34.559,33.504
35.117,35.699,34.714,34.541,34.548,33.556999999999995
35.104,35.703,34.79,34.518,34.538000000000004,33.626
35.086999999999996,35.705999999999996,34.868,34.494,34.529,33.715
35.068000000000005,35.709,34.948,34.469,34.522,33.825
35.048,35.71,35.03,34.443000000000005,34.52,33.957
35.028,35.71,35.111999999999995,34.418,34.522,34.109
35.009,35.709,35.194,34.393,34.531,34.282
34.992,35.709,35.274,34.369,34.549,34.474000000000004
34.978,35.71,35.352,34.348,34.577,34.681
34.966,35.711,35.427,34.327,34.615,34.902
34.957,35.714,35.499,34.306999999999995,34.666,35.132
34.951,35.716,35.566,34.287,34.728,35.369
34.946999999999996,35.716,35.628,34.266,34.802,35.609
34.944,35.715,35.683,34.244,34.889,35.848
34.943000000000005,35.711,35.731,34.222,34.986,36.084
34.941,35.705999999999996,35.77,34.199,35.091,36.312
34.94,35.7,35.799,34.177,35.203,36.532
34.941,35.693000000000005,35.818000000000005,34.154,35.321,36.74
34.942,35.685,35.829,34.131,35.443000000000005,36.936
34.944,35.676,35.830999999999996,34.109,35.567,37.118
34.949,35.667,35.825,34.088,35.693000000000005,37.287
34.957,35.659,35.815,34.068000000000005,35.818000000000005,37.442
34.97,35.652,35.799,34.049,35.94,37.584
34.986999999999995,35.646,35.783,34.031,36.059,37.713
35.008,35.64,35.766999999999996,34.013000000000005,36.171,37.832
35.036,35.635,35.754,33.998000000000005,36.275,37.939
35.068000000000005,35.626999999999995,35.745,33.983000000000004,36.368,38.037
35.105,35.618,35.74,33.971,36.451,38.126
35.146,35.607,35.738,33.96,36.523,38.205999999999996
35.192,35.594,35.739000000000004,33.951,36.583,38.277
35.24,35.580999999999996,35.74,33.943000000000005,36.634,38.341
35.292,35.567,35.743,33.936,36.674,38.398
35.345,35.553000000000004,35.745,33.929,36.705,38.446999999999996
35.4,35.539,35.746,33.921,36.73,38.489000000000004
35.455,35.524,35.746,33.912,36.749,38.525
35.51,35.51,35.744,33.902,36.764,38.554
35.563,35.495,35.741,33.891,36.775,38.576
35.611999999999995,35.482,35.738,33.88,36.785,38.592
35.656,35.47,35.733000000000004,33.867,36.794000000000004,38.601
35.694,35.458,35.728,33.854,36.804,38.604
35.726,35.446,35.721,33.839,36.814,38.602
35.751,35.431999999999995,35.713,33.824,36.825,38.595
35.769,35.418,35.705,33.808,36.838,38.586
35.781,35.404,35.698,33.79,36.849000000000004,38.574
35.786,35.39,35.691,33.771,36.86,38.561
35.786,35.378,35.685,33.75,36.868,38.548
35.781,35.368,35.681,33.727,36.876,38.535
35.774,35.359,35.676,33.702,36.883,38.524
35.765,35.352,35.672,33.676,36.891999999999996,38.513000000000005
35.755,35.346,35.667,33.648,36.902,38.503
35.745,35.341,35.661,33.618,36.915,38.494
35.735,35.336,35.654,33.586999999999996,36.929,38.485
35.726,35.333,35.646,33.556,36.945,38.477
35.718,35.333,35.637,33.525999999999996,36.959,38.469
35.71,35.336,35.626,33.495,36.972,38.463
35.703,35.339,35.615,33.465,36.981,38.458
35.696999999999996,35.343,35.602,33.436,36.986,38.453
35.691,35.347,35.588,33.409,36.986,38.446999999999996
35.686,35.35,35.574,33.384,36.982,38.438
35.681,35.353,35.56,33.361999999999995,36.974000000000004,38.425
35.677,35.355,35.546,33.343,36.961999999999996,38.406
35.675,35.356,35.532,33.326,36.946,38.382
35.674,35.355,35.516999999999996,33.313,36.927,38.352
35.674,35.351,35.503,33.304,36.905,38.316
35.676,35.344,35.489000000000004,33.299,36.881,38.277
35.679,35.336,35.475,33.298,36.854,38.235
35.683,35.326,35.461999999999996,33.302,36.826,38.191
35.689,35.316,35.449,33.313,36.797,38.145
35.696,35.305,35.438,33.336999999999996,36.766999999999996,38.097
35.704,35.294000000000004,35.429,33.378,36.736999999999995,38.048
35.714,35.284,35.422,33.438,36.708,37.997
35.724000000000004,35.273,35.417,33.516,36.679,37.946999999999996
35.734,35.263000000000005,35.416,33.613,36.65,37.896
35.742,35.255,35.416,33.726,36.621,37.847
35.749,35.249,35.418,33.854,36.593,37.8
35.751,35.245,35.422,33.994,36.565,37.757
35.749,35.244,35.426,34.145,36.537,37.719
35.742,35.244,35.431,34.303000000000004,36.509,37.688
35.73,35.246,35.435,34.466,36.483000000000004,37.665
35.713,35.248000000000005,35.437,34.633,36.458,37.65
35.691,35.249,35.437,34.8,36.438,37.641
35.666,35.248000000000005,35.433,34.969,36.42,37.635999999999996
35.64,35.246,35.426,35.137,36.406,37.635
35.611999999999995,35.241,35.416,35.304,36.395,37.635
35.586,35.236,35.400999999999996,35.468,36.385999999999996,37.635999999999996
35.559,35.229,35.384,35.629,36.38,37.634
35.534,35.221,35.366,35.786,36.375,37.629
35.510999999999996,35.211,35.349000000000004,35.937,36.373000000000005,37.619
35.492,35.2,35.335,36.082,36.372,37.605
35.477,35.187,35.324,36.219,36.374,37.585
35.468,35.175,35.317,36.347,36.376999999999995,37.559
35.464,35.164,35.315,36.467,36.382,37.529
35.467,35.154,35.317,36.579,36.389,37.495
35.476,35.146,35.324,36.681,36.398,37.458
35.488,35.14,35.332,36.775,36.409,37.421
35.503,35.134,35.342,36.86,36.419000000000004,37.384
35.52,35.13,35.353,36.939,36.427,37.348
35.537,35.125,35.361,37.010999999999996,36.431999999999995,37.313
35.554,35.121,35.367,37.077,36.431999999999995,37.279
35.569,35.117,35.368,37.137,36.427,37.247
35.583,35.111,35.365,37.192,36.418,37.216
35.595,35.103,35.356,37.241,36.404,37.186
35.605,35.092,35.342,37.284,36.387,37.156
35.613,35.079,35.323,37.321999999999996,36.368,37.126999999999995
35.619,35.065,35.3,37.353,36.346,37.099000000000004
35.622,35.052,35.273,37.376999999999995,36.321999999999996,37.07
35.622,35.041,35.242,37.393,36.297,37.04
35.619,35.032,35.21,37.4,36.27,37.009
35.614000000000004,35.025999999999996,35.176,37.399,36.243,36.977
35.608000000000004,35.021,35.143,37.389,36.215,36.942
35.601,35.018,35.111,37.372,36.188,36.907
35.595,35.016,35.08,37.349000000000004,36.162,36.87
35.59,35.015,35.053000000000004,37.321,36.137,36.832
35.586,35.014,35.031,37.29,36.111,36.794000000000004
35.585,35.015,35.013000000000005,37.259,36.085,36.756
35.585,35.016,34.998000000000005,37.227,36.056999999999995,36.716
35.586,35.016,34.988,37.198,36.03,36.674
35.586,35.014,34.982,37.172,36.003,36.631
35.586,35.01,34.98,37.150999999999996,35.978,36.586
35.583,35.005,34.982,37.134,35.955999999999996,36.538000000000004
35.579,34.997,34.986999999999995,37.122,35.936,36.486999999999995
35.571,34.988,34.995,37.114000000000004,35.918,36.433
35.559,34.977,35.003,37.109,35.902,36.376999999999995
35.544000000000004,34.966,35.01,37.104,35.884,36.32
35.525,34.954,35.014,37.099000000000004,35.865,36.263000000000005
35.503,34.941,35.014,37.093,35.844,36.207
35.478,34.929,35.009,37.086999999999996,35.819,36.152
35.452,34.918,34.993,37.078,35.793,36.098
35.427,34.91,34.966,37.066,35.766999999999996,36.047
35.403,34.906,34.93,37.051,35.741,35.998000000000005
35.382,34.905,34.888000000000005,37.033,35.715,35.951
35.364000000000004,34.906,34.843,37.012,35.689,35.905
35.349000000000004,34.91,34.798,36.988,35.665,35.863
35.336,34.916,34.756,36.959,35.64,35.823
35.327,34.925,34.719,36.924,35.617,35.787
35.319,34.938,34.688,36.884,35.593,35.753
35.312,34.953,34.667,36.84,35.569,35.721
35.305,34.972,34.654,36.792,35.545,35.69
35.299,34.995,34.649,36.743,35.519,35.661
35.292,35.023,34.652,36.693000000000005,35.492,35.632
35.287,35.056,34.662,36.646,35.465,35.605
35.282,35.094,34.679,36.602,35.438,35.578
35.279,35.135999999999996,34.701,36.564,35.411,35.554
35.275,35.181999999999995,34.726,36.533,35.384,35.529
35.271,35.229,34.753,36.508,35.358000000000004,35.506
35.266,35.277,34.779,36.489000000000004,35.333,35.484
35.260999999999996,35.325,34.804,36.476,35.311,35.463
35.254,35.373000000000005,34.824,36.468,35.29,35.441
35.248000000000005,35.42,34.839,36.465,35.271,35.419000000000004
35.242,35.467,34.848,36.464,35.254,35.397
35.238,35.513000000000005,34.851,36.466,35.239000000000004,35.375
35.235,35.556999999999995,34.85,36.472,35.223,35.353
35.234,35.597,34.844,36.48,35.207,35.33
35.236,35.634,34.836,36.491,35.189,35.306999999999995
35.239000000000004,35.667,34.826,36.501999999999995,35.172,35.284
35.246,35.698,34.814,36.512,35.156,35.26
35.256,35.726,34.802,36.518,35.141999999999996,35.235
35.266999999999996,35.753,34.789,36.518,35.129,35.207
35.281,35.778,34.774,36.512,35.118,35.178000000000004
35.296,35.801,34.759,36.499,35.109,35.146
35.311,35.823,34.742,36.482,35.101,35.111999999999995
35.325,35.843,34.724000000000004,36.459,35.095,35.076
35.338,35.861,34.705999999999996,36.433,35.089,35.04
35.348,35.876999999999995,34.688,36.403,35.084,35.004
35.355,35.891,34.67,36.369,35.079,34.969
35.359,35.902,34.653,36.333,35.073,34.934
35.359,35.91,34.638000000000005,36.294000000000004,35.065,34.899
35.355,35.915,34.624,36.254,35.055,34.865
35.349000000000004,35.917,34.611999999999995,36.213,35.044000000000004,34.83
35.341,35.917,34.602,36.173,35.032,34.795
35.33,35.914,34.595,36.134,35.018,34.759
35.32,35.909,34.591,36.095,35.004,34.722
35.309,35.903,34.59,36.059,34.989000000000004,34.685
35.298,35.894,34.591,36.024,34.974000000000004,34.649
35.287,35.884,34.595,35.993,34.958,34.613
35.277,35.872,34.599000000000004,35.966,34.941,34.579
35.266999999999996,35.86,34.603,35.941,34.924,34.547
35.259,35.849000000000004,34.607,35.917,34.907,34.516999999999996
35.251,35.84,34.61,35.894,34.89,34.489000000000004
35.244,35.833,34.611999999999995,35.869,34.872,34.463
35.238,35.827,34.611999999999995,35.843,34.856,34.44
35.233000000000004,35.823,34.616,35.814,34.84,34.419000000000004
35.229,35.821,34.624,35.783,34.826,34.4
35.225,35.82,34.638000000000005,35.748000000000005,34.814,34.383
35.221,35.82,34.656,35.71,34.803000000000004,34.367
35.218,35.819,34.676,35.669000000000004,34.792,34.351
35.214,35.817,34.696,35.626999999999995,34.781,34.335
35.21,35.813,34.714,35.585,34.77,34.317
35.203,35.808,34.726,35.542,34.759,34.299
35.195,35.802,34.733000000000004,35.499,34.747,34.279
35.185,35.796,34.732,35.455999999999996,34.736,34.257
35.174,35.79,34.724000000000004,35.414,34.724000000000004,34.235
35.163000000000004,35.785,34.708,35.372,34.71,34.211
35.152,35.781,34.686,35.332,34.694,34.187
35.141999999999996,35.777,34.658,35.292,34.676,34.163000000000004
35.134,35.774,34.626999999999995,35.255,34.657,34.138000000000005
35.126999999999995,35.771,34.592,35.219,34.635999999999996,34.113
35.123000000000005,35.768,34.556999999999995,35.186,34.614000000000004,34.086999999999996
35.121,35.764,34.522,35.156,34.593,34.06
35.119,35.760999999999996,34.486999999999995,35.129,34.571999999999996,34.034
35.118,35.758,34.453,35.105,34.55,34.008
35.116,35.753,34.422,35.083,34.528,33.983000000000004
35.111999999999995,35.748000000000005,34.393,35.062,34.505,33.959
35.105,35.74,34.367,35.041,34.48,33.938
35.097,35.731,34.347,35.021,34.455999999999996,33.919000000000004
35.086999999999996,35.72,34.330999999999996,35.0,34.431,33.902
35.074,35.708,34.321999999999996,34.979,34.406,33.885
35.06,35.694,34.318000000000005,34.957,34.382,33.867
35.044000000000004,35.68,34.319,34.935,34.358000000000004,33.848
35.028,35.668,34.325,34.915,34.336,33.827
35.012,35.656,34.334,34.895,34.317,33.805
34.999,35.647,34.346,34.876,34.3,33.783
34.986999999999995,35.64,34.359,34.858000000000004,34.286,33.758
34.978,35.635,34.373000000000005,34.841,34.274,33.733000000000004
34.973,35.633,34.385999999999996,34.824,34.266,33.707
34.97,35.631,34.398,34.806999999999995,34.259,33.681
34.971,35.631,34.41,34.791,34.255,33.654
34.976,35.631,34.42,34.773,34.255,33.628
34.985,35.632,34.43,34.756,34.259,33.602
34.997,35.633,34.44,34.736999999999995,34.27,33.578
35.010999999999996,35.635,34.45,34.719,34.288000000000004,33.556
35.028,35.638000000000005,34.461999999999996,34.699,34.317,33.537
35.045,35.64,34.477,34.68,34.356,33.52
35.061,35.641,34.497,34.66,34.408,33.505
35.074,35.64,34.52,34.641,34.474000000000004,33.491
35.086,35.637,34.548,34.62,34.552,33.478
35.095,35.632,34.582,34.599000000000004,34.643,33.464
35.103,35.626999999999995,34.623000000000005,34.577,34.744,33.448
35.111,35.62,34.672,34.553000000000004,34.852,33.431999999999995
35.121,35.611999999999995,34.729,34.529,34.966,33.413000000000004
35.133,35.603,34.795,34.503,35.084,33.391999999999996
35.149,35.593,34.87,34.477,35.205999999999996,33.371
35.17,35.586999999999996,34.953,34.451,35.330999999999996,33.349000000000004
35.196,35.584,35.042,34.426,35.457,33.328
35.227,35.584,35.135,34.402,35.582,33.308
35.265,35.586,35.231,34.379,35.705999999999996,33.291
35.309,35.588,35.327,34.358000000000004,35.826,33.28
35.358000000000004,35.59,35.421,34.34,35.941,33.278
35.409,35.59,35.510999999999996,34.325,36.047,33.287
35.461999999999996,35.589,35.596,34.313,36.145,33.311
35.516,35.586,35.674,34.303000000000004,36.234,33.352
35.568000000000005,35.582,35.742,34.295,36.314,33.415
35.618,35.576,35.799,34.288000000000004,36.387,33.501999999999995
35.665,35.569,35.843,34.282,36.45,33.614000000000004
35.705999999999996,35.56,35.875,34.275,36.506,33.751
35.742,35.549,35.894,34.265,36.554,33.913000000000004
35.771,35.536,35.900999999999996,34.251999999999995,36.595,34.097
35.794000000000004,35.522,35.898,34.236999999999995,36.632,34.302
35.811,35.506,35.885999999999996,34.22,36.666,34.525
35.821999999999996,35.491,35.868,34.201,36.696999999999996,34.764
35.829,35.476,35.844,34.181999999999995,36.728,35.013000000000005
35.830999999999996,35.461,35.818000000000005,34.16,36.759,35.271
35.83,35.446999999999996,35.791,34.137,36.789,35.532
35.827,35.433,35.765,34.114000000000004,36.817,35.794000000000004
35.823,35.42,35.741,34.089,36.842,36.051
35.82,35.407,35.722,34.063,36.861999999999995,36.302
35.817,35.395,35.705999999999996,34.035,36.876999999999995,36.542
35.816,35.382,35.696,34.006,36.888000000000005,36.771
35.817,35.371,35.691,33.976,36.894,36.986999999999995
35.819,35.36,35.69,33.945,36.897,37.189
35.821999999999996,35.352,35.693000000000005,33.913000000000004,36.898,37.379
35.825,35.344,35.7,33.881,36.897,37.556
35.827,35.339,35.709,33.848,36.895,37.72
35.828,35.333,35.72,33.816,36.893,37.872
35.826,35.328,35.732,33.785,36.891,38.012
35.82,35.324,35.745,33.756,36.889,38.139
35.809,35.318000000000005,35.757,33.728,36.887,38.255
35.793,35.313,35.766999999999996,33.704,36.885,38.359
35.774,35.308,35.775,33.681,36.883,38.452
35.751,35.302,35.78,33.661,36.882,38.535
35.727,35.297,35.781,33.644,36.879,38.608000000000004
35.704,35.291,35.778,33.63,36.874,38.673
35.681999999999995,35.285,35.772,33.617,36.866,38.731
35.662,35.277,35.760999999999996,33.606,36.856,38.783
35.647,35.266999999999996,35.746,33.595,36.842,38.827
35.635,35.253,35.728,33.586,36.824,38.864000000000004
35.628,35.236,35.707,33.577,36.804,38.894
35.623000000000005,35.215,35.685,33.568000000000005,36.782,38.917
35.62,35.193000000000005,35.661,33.56,36.757,38.931999999999995
35.617,35.17,35.638000000000005,33.553000000000004,36.73,38.941
35.613,35.149,35.618,33.547,36.702,38.943000000000005
35.606,35.128,35.601,33.542,36.671,38.94
35.597,35.11,35.588,33.537,36.64,38.931999999999995
35.584,35.094,35.58,33.533,36.606,38.921
35.569,35.08,35.576,33.529,36.571,38.906
35.551,35.068000000000005,35.576,33.525,36.535,38.887
35.531,35.061,35.579,33.519,36.5,38.864000000000004
35.510999999999996,35.056,35.584,33.510999999999996,36.467,38.838
35.49,35.055,35.591,33.501999999999995,36.437,38.811
35.471,35.056999999999995,35.598,33.491,36.41,38.782
35.453,35.061,35.606,33.478,36.387,38.755
35.438,35.066,35.611999999999995,33.464,36.369,38.729
35.425,35.074,35.616,33.45,36.356,38.707
35.416,35.082,35.618,33.435,36.348,38.688
35.409,35.091,35.615,33.42,36.345,38.672
35.405,35.101,35.609,33.406,36.345,38.659
35.403,35.111999999999995,35.598,33.395,36.348,38.648
35.403,35.123000000000005,35.583,33.39,36.352,38.637
35.404,35.134,35.564,33.391,36.356,38.626999999999995
35.408,35.144,35.543,33.402,36.36,38.616
35.415,35.15,35.522,33.425,36.364000000000004,38.603
35.424,35.152,35.501,33.464,36.368,38.589
35.433,35.150999999999996,35.482,33.52,36.372,38.571
35.442,35.146,35.466,33.596,36.376,38.549
35.449,35.138000000000005,35.455,33.693000000000005,36.381,38.521
35.455,35.126999999999995,35.448,33.809,36.385999999999996,38.486999999999995
35.459,35.114000000000004,35.446,33.945,36.391,38.446999999999996
35.461999999999996,35.101,35.448,34.098,36.395,38.400999999999996
35.463,35.086999999999996,35.452,34.266,36.398,38.35
35.463,35.074,35.459,34.446999999999996,36.4,38.293
35.461999999999996,35.063,35.468,34.639,36.398,38.233000000000004
35.459,35.053000000000004,35.478,34.838,36.394,38.172
35.455999999999996,35.045,35.489000000000004,35.042,36.385999999999996,38.11
35.453,35.038000000000004,35.499,35.249,36.374,38.049
35.45,35.031,35.508,35.455999999999996,36.36,37.991
35.449,35.023,35.514,35.66,36.344,37.936
35.446,35.015,35.518,35.859,36.325,37.885
35.443000000000005,35.007,35.519,36.049,36.304,37.836999999999996
35.439,34.999,35.516,36.23,36.281,37.794000000000004
35.435,34.992,35.510999999999996,36.398,36.258,37.755
35.43,34.985,35.501999999999995,36.553000000000004,36.234,37.722
35.424,34.979,35.491,36.693000000000005,36.211,37.694
35.417,34.973,35.476,36.818000000000005,36.189,37.67
35.408,34.968,35.458,36.927,36.166,37.652
35.398,34.963,35.438,37.025,36.143,37.635999999999996
35.387,34.96,35.417,37.115,36.118,37.624
35.374,34.957,35.394,37.199,36.09,37.613
35.359,34.955999999999996,35.37,37.275,36.06,37.602
35.345,34.955999999999996,35.348,37.342,36.028,37.591
35.332,34.955999999999996,35.327,37.397,35.995,37.579
35.321,34.957,35.308,37.44,35.963,37.566
35.312,34.959,35.292,37.469,35.931999999999995,37.552
35.306,34.96,35.279,37.485,35.902,37.534
35.301,34.961999999999996,35.266999999999996,37.488,35.873000000000005,37.514
35.299,34.964,35.258,37.478,35.845,37.491
35.298,34.965,35.25,37.455999999999996,35.817,37.465
35.298,34.966,35.242,37.426,35.788000000000004,37.436
35.299,34.968,35.235,37.39,35.76,37.405
35.301,34.972,35.229,37.349000000000004,35.732,37.372
35.303000000000004,34.98,35.221,37.306999999999995,35.705,37.336999999999996
35.304,34.993,35.211999999999996,37.264,35.679,37.302
35.305,35.014,35.201,37.224000000000004,35.654,37.266
35.306,35.044000000000004,35.189,37.186,35.63,37.229
35.306999999999995,35.080999999999996,35.177,37.153,35.606,37.191
35.306,35.125,35.166,37.123000000000005,35.582,37.15
35.304,35.176,35.156,37.096,35.559,37.107
35.301,35.232,35.147,37.073,35.536,37.062
35.295,35.293,35.138000000000005,37.054,35.513000000000005,37.015
35.288000000000004,35.358000000000004,35.128,37.037,35.49,36.967
35.281,35.424,35.119,37.022,35.467,36.918
35.273,35.49,35.108000000000004,37.007,35.446,36.868
35.265,35.554,35.097,36.991,35.425,36.818000000000005
35.257,35.614000000000004,35.084,36.975,35.405,36.768
35.248000000000005,35.669000000000004,35.071,36.955999999999996,35.385,36.718
35.239000000000004,35.72,35.056999999999995,36.936,35.365,36.666
35.23,35.765,35.042,36.914,35.344,36.613
35.223,35.804,35.028,36.89,35.323,36.559
35.216,35.836,35.015,36.865,35.302,36.501999999999995
35.211999999999996,35.861999999999995,35.001999999999995,36.838,35.282,36.444
35.21,35.882,34.99,36.81,35.263000000000005,36.384
35.21,35.897,34.979,36.781,35.245,36.325
35.211999999999996,35.909,34.969,36.751999999999995,35.229,36.268
35.216,35.918,34.961999999999996,36.723,35.213,36.214
35.22,35.925,34.955999999999996,36.693000000000005,35.199,36.162
35.223,35.928000000000004,34.953,36.664,35.185,36.113
35.225,35.929,34.953,36.635,35.171,36.066
35.226,35.926,34.955,36.605,35.157,36.021
35.225,35.92,34.957,36.575,35.141,35.977
35.222,35.912,34.959,36.545,35.126,35.934
35.22,35.902,34.961,36.516,35.11,35.891
35.216,35.891999999999996,34.96,36.486,35.094,35.848
35.211999999999996,35.881,34.957,36.457,35.078,35.805
35.208,35.872,34.95,36.43,35.062,35.762
35.203,35.863,34.94,36.403,35.045,35.72
35.199,35.856,34.926,36.38,35.028,35.677
35.194,35.85,34.91,36.36,35.01,35.632
35.189,35.847,34.891,36.342,34.991,35.586
35.181999999999995,35.847,34.872,36.328,34.973,35.539
35.175,35.849000000000004,34.852,36.317,34.955,35.49
35.165,35.853,34.833,36.308,34.94,35.442
35.152,35.86,34.816,36.301,34.926,35.396
35.139,35.869,34.803000000000004,36.297,34.914,35.352
35.124,35.88,34.794000000000004,36.295,34.904,35.31
35.108000000000004,35.893,34.79,36.294000000000004,34.896,35.273
35.091,35.907,34.79,36.294000000000004,34.889,35.239000000000004
35.076,35.922,34.794000000000004,36.295,34.883,35.209
35.062,35.937,34.801,36.295,34.876999999999995,35.183
35.05,35.951,34.811,36.295,34.871,35.161
35.041,35.963,34.824,36.295,34.865,35.143
35.036,35.972,34.836,36.294000000000004,34.859,35.126999999999995
35.034,35.979,34.848,36.292,34.852,35.115
35.035,35.984,34.858000000000004,36.288000000000004,34.845,35.104
35.039,35.985,34.864000000000004,36.283,34.838,35.093
35.045,35.984,34.866,36.277,34.830999999999996,35.082
35.054,35.98,34.861,36.271,34.823,35.069
35.063,35.972,34.851,36.263000000000005,34.815,35.052
35.071999999999996,35.96,34.836999999999996,36.253,34.805,35.035
35.08,35.946,34.819,36.243,34.793,35.016999999999996
35.086,35.928000000000004,34.799,36.23,34.78,35.001
35.088,35.909,34.777,36.215,34.765,34.984
35.086999999999996,35.889,34.755,36.198,34.749,34.967
35.080999999999996,35.87,34.733000000000004,36.177,34.731,34.948
35.07,35.852,34.713,36.152,34.71,34.928000000000004
35.056999999999995,35.834,34.695,36.123000000000005,34.688,34.905
35.04,35.817,34.68,36.091,34.663000000000004,34.878
35.021,35.801,34.669000000000004,36.056,34.638000000000005,34.847
35.001,35.785,34.662,36.019,34.613,34.813
34.983000000000004,35.769,34.66,35.986,34.589,34.775999999999996
34.966,35.754,34.661,35.959,34.566,34.736
34.95,35.739000000000004,34.666,35.938,34.546,34.695
34.937,35.723,34.673,35.922,34.525999999999996,34.653
34.925,35.707,34.681,35.908,34.507,34.611999999999995
34.914,35.691,34.69,35.893,34.489000000000004,34.57
34.905,35.675,34.699,35.876,34.471,34.53
34.9,35.66,34.707,35.855,34.453,34.49
34.898,35.648,34.714,35.828,34.436,34.452
34.900999999999996,35.639,34.719,35.793,34.42,34.414
34.907,35.633,34.721,35.75,34.407,34.379
34.917,35.629,34.718,35.7,34.396,34.344
34.929,35.626,34.711,35.643,34.387,34.311
34.944,35.626,34.699,35.582,34.379,34.279
34.963,35.626999999999995,34.681999999999995,35.519,34.373000000000005,34.249
34.984,35.631,34.661,35.454,34.367,34.22
35.007,35.635999999999996,34.635999999999996,35.39,34.361,34.192
35.032,35.641,34.608000000000004,35.328,34.352,34.165
35.059,35.647,34.58,35.27,34.342,34.139
35.088,35.652,34.553000000000004,35.217,34.33,34.114000000000004
35.12,35.655,34.529,35.169000000000004,34.316,34.091
35.156,35.656,34.51,35.126,34.301,34.071
35.198,35.655,34.496,35.088,34.286,34.054
35.244,35.654,34.486999999999995,35.054,34.269,34.039
35.294000000000004,35.653,34.485,35.025,34.253,34.027
35.348,35.650999999999996,34.488,34.998000000000005,34.236999999999995,34.016
35.406,35.649,34.495,34.973,34.222,34.005
35.466,35.646,34.507,34.95,34.21,33.993
35.528,35.641999999999996,34.521,34.929,34.2,33.979
35.59,35.637,34.536,34.908,34.195,33.963
35.650999999999996,35.632,34.553000000000004,34.89,34.193000000000005,33.945
35.71,35.626999999999995,34.57,34.872,34.196999999999996,33.923
35.765,35.622,34.59,34.854,34.208,33.9
35.815,35.615,34.611999999999995,34.836999999999996,34.226,33.875
35.858000000000004,35.606,34.635999999999996,34.819,34.255,33.848
35.894,35.594,34.665,34.8,34.297,33.821
35.924,35.58,34.699,34.781,34.352,33.792
35.948,35.564,34.738,34.759,34.423,33.763000000000005
35.966,35.548,34.782,34.735,34.507,33.734
35.98,35.531,34.832,34.71,34.603,33.705
35.989000000000004,35.513000000000005,34.887,34.683,34.707,33.675
35.994,35.493,34.95,34.656,34.819,33.647
35.996,35.472,35.019,34.63,34.936,33.621
35.996,35.448,35.094,34.605,35.056,33.596
35.994,35.423,35.174,34.583,35.18,33.571999999999996
35.991,35.397,35.257,34.562,35.305,33.548
35.986999999999995,35.371,35.342,34.544000000000004,35.431999999999995,33.524
35.984,35.346,35.426,34.525999999999996,35.56,33.501
35.98,35.323,35.509,34.508,35.685,33.478
35.977,35.301,35.588,34.49,35.806,33.455
35.975,35.283,35.663000000000004,34.471,35.92,33.433
35.973,35.268,35.733000000000004,34.452,36.027,33.411
35.972,35.258,35.797,34.433,36.125,33.391
35.969,35.251,35.852,34.416,36.214,33.371
35.965,35.249,35.9,34.399,36.293,33.352
35.959,35.249,35.939,34.384,36.363,33.332
35.953,35.25,35.969,34.37,36.426,33.311
35.945,35.253,35.992,34.358000000000004,36.481,33.289
35.936,35.255,36.007,34.348,36.529,33.265
35.926,35.258,36.016,34.34,36.57,33.239000000000004
35.913000000000004,35.259,36.016999999999996,34.333,36.605,33.213
35.898,35.259,36.013000000000005,34.328,36.635999999999996,33.186
35.88,35.258,36.004,34.323,36.662,33.161
35.861,35.255,35.991,34.317,36.686,33.137
35.842,35.251,35.976,34.308,36.707,33.116
35.821999999999996,35.245,35.958,34.297,36.726,33.097
35.803000000000004,35.239000000000004,35.938,34.284,36.742,33.08
35.784,35.231,35.919000000000004,34.266999999999996,36.756,33.067
35.766999999999996,35.221,35.9,34.248000000000005,36.765,33.056
35.75,35.21,35.883,34.226,36.772,33.048
35.735,35.198,35.87,34.203,36.777,33.043
35.719,35.185,35.86,34.178000000000004,36.78,33.04
35.704,35.171,35.855,34.154,36.782,33.038000000000004
35.688,35.157,35.855,34.131,36.783,33.038000000000004
35.674,35.143,35.86,34.109,36.784,33.04
35.66,35.131,35.87,34.088,36.785,33.045
35.648,35.12,35.884,34.068000000000005,36.786,33.056
35.637,35.111999999999995,35.9,34.047,36.788000000000004,33.075
35.626999999999995,35.105,35.918,34.025999999999996,36.79,33.105
35.617,35.101,35.937,34.004,36.794000000000004,33.152
35.608000000000004,35.099000000000004,35.955,33.982,36.798,33.218
35.597,35.1,35.972,33.958,36.804,33.306999999999995
35.586,35.103,35.986,33.936,36.809,33.421
35.573,35.11,35.997,33.913000000000004,36.813,33.56
35.56,35.118,36.003,33.889,36.815,33.725
35.547,35.128,36.004,33.861999999999995,36.814,33.913000000000004
35.535,35.135999999999996,35.999,33.832,36.81,34.124
35.525,35.143,35.991,33.801,36.802,34.354
35.518,35.145,35.978,33.769,36.791,34.6
35.515,35.143,35.963,33.736999999999995,36.775999999999996,34.86
35.516,35.135999999999996,35.946,33.707,36.756,35.13
35.521,35.124,35.927,33.678000000000004,36.733000000000004,35.407
35.532,35.108000000000004,35.906,33.652,36.707,35.685
35.546,35.089,35.885,33.63,36.677,35.961
35.564,35.069,35.863,33.611,36.646,36.231
35.585,35.048,35.841,33.596,36.614000000000004,36.49
35.609,35.03,35.819,33.586,36.580999999999996,36.736999999999995
35.634,35.015,35.797,33.579,36.55,36.968
35.66,35.004,35.775999999999996,33.575,36.52,37.183
35.685,34.997,35.757,33.574,36.492,37.38
35.707,34.995,35.739000000000004,33.575,36.465,37.56
35.726,34.996,35.724000000000004,33.575,36.438,37.723
35.741,35.0,35.713,33.575,36.412,37.869
35.751,35.007,35.704,33.574,36.387,38.0
35.757,35.015,35.7,33.571,36.364000000000004,38.116
35.76,35.024,35.699,33.565,36.344,38.218
35.759,35.033,35.702,33.559,36.327,38.306999999999995
35.756,35.042,35.708,33.553000000000004,36.314,38.385
35.751,35.048,35.717,33.548,36.304,38.452
35.746,35.051,35.727,33.546,36.299,38.510999999999996
35.74,35.052,35.738,33.549,36.297,38.563
35.735,35.05,35.747,33.56,36.298,38.608000000000004
35.73,35.045,35.753,33.582,36.299,38.648
35.726,35.04,35.756,33.617,36.301,38.684
35.724000000000004,35.034,35.755,33.667,36.303000000000004,38.716
35.724000000000004,35.029,35.75,33.734,36.304,38.744
35.724000000000004,35.024,35.74,33.82,36.306999999999995,38.766999999999996
35.725,35.02,35.725,33.926,36.309,38.786
35.725,35.016,35.705999999999996,34.052,36.312,38.799
35.723,35.013000000000005,35.685,34.198,36.314,38.808
35.72,35.01,35.663000000000004,34.363,36.315,38.811
35.714,35.006,35.643,34.545,36.315,38.81
35.705,35.001,35.625,34.741,36.312,38.806
35.694,34.993,35.611,34.948,36.309,38.797
35.681999999999995,34.982,35.602,35.162,36.306,38.786
35.668,34.969,35.599000000000004,35.381,36.302,38.771
35.653,34.955999999999996,35.601,35.6,36.298,38.754
35.638000000000005,34.943000000000005,35.608000000000004,35.818000000000005,36.291,38.736
35.624,34.931,35.618,36.03,36.28,38.716
35.61,34.921,35.631,36.234,36.266,38.695
35.597,34.912,35.646,36.431,36.249,38.673
35.584,34.906,35.659,36.616,36.23,38.650999999999996
35.571,34.904,35.672,36.79,36.211,38.629
35.56,34.906,35.681999999999995,36.952,36.19,38.606
35.551,34.913000000000004,35.689,37.099000000000004,36.17,38.583
35.543,34.926,35.691,37.232,36.149,38.558
35.537,34.945,35.688,37.35,36.129,38.531
35.531,34.969,35.681999999999995,37.453,36.11,38.501999999999995
35.524,34.997,35.673,37.541,36.091,38.469
35.514,35.03,35.659,37.615,36.071999999999996,38.431999999999995
35.501,35.067,35.643,37.676,36.053000000000004,38.389
35.485,35.107,35.623000000000005,37.725,36.031,38.341
35.465,35.15,35.602,37.763000000000005,36.006,38.287
35.443000000000005,35.195,35.579,37.789,35.979,38.228
35.419000000000004,35.241,35.555,37.804,35.95,38.165
35.395,35.288000000000004,35.532,37.81,35.921,38.098
35.37,35.336999999999996,35.51,37.808,35.891,38.029
35.346,35.387,35.486999999999995,37.8,35.86,37.958
35.323,35.437,35.463,37.787,35.830999999999996,37.888000000000005
35.301,35.488,35.439,37.771,35.802,37.82
35.28,35.537,35.414,37.751999999999995,35.775,37.756
35.262,35.584,35.39,37.733000000000004,35.749,37.696999999999996
35.246,35.63,35.367,37.715,35.723,37.644
35.232,35.673,35.347,37.698,35.696,37.597
35.219,35.713,35.33,37.683,35.668,37.556
35.209,35.75,35.317,37.671,35.639,37.52
35.2,35.782,35.308,37.662,35.608000000000004,37.49
35.193000000000005,35.811,35.302,37.655,35.576,37.465
35.187,35.835,35.298,37.649,35.543,37.445
35.181,35.853,35.298,37.645,35.510999999999996,37.427
35.173,35.867,35.299,37.641,35.478,37.412
35.165,35.876,35.303000000000004,37.637,35.446999999999996,37.397
35.154,35.88,35.308,37.632,35.416,37.38
35.144,35.881,35.315,37.624,35.385999999999996,37.361999999999995
35.133,35.88,35.321999999999996,37.613,35.356,37.343
35.123000000000005,35.876999999999995,35.326,37.597,35.326,37.323
35.111999999999995,35.874,35.328,37.576,35.298,37.301
35.102,35.871,35.326,37.548,35.27,37.279
35.092,35.868,35.32,37.516,35.243,37.257
35.084,35.867,35.308,37.48,35.218,37.234
35.076,35.866,35.291,37.44,35.195,37.211
35.071,35.865,35.27,37.398,35.175,37.189
35.067,35.865,35.247,37.354,35.157,37.167
35.065,35.865,35.222,37.31,35.141999999999996,37.145
35.064,35.865,35.198,37.266999999999996,35.128,37.122
35.062,35.863,35.174,37.228,35.116,37.098
35.06,35.857,35.154,37.195,35.107,37.071999999999996
35.056,35.848,35.135999999999996,37.168,35.099000000000004,37.045
35.05,35.836999999999996,35.124,37.146,35.093,37.016
35.045,35.826,35.115,37.128,35.086999999999996,36.986999999999995
35.039,35.815,35.111,37.111999999999995,35.08,36.957
35.034,35.805,35.111,37.098,35.07,36.927
35.03,35.796,35.115,37.084,35.058,36.896
35.028,35.789,35.122,37.069,35.043,36.864000000000004
35.028,35.786,35.129,37.051,35.025,36.829
35.031,35.786,35.137,37.032,35.007,36.791
35.035,35.791,35.144,37.009,34.99,36.749
35.041,35.798,35.149,36.983000000000004,34.975,36.703
35.049,35.809,35.15,36.954,34.966,36.654
35.058,35.821999999999996,35.147,36.922,34.967,36.603
35.068000000000005,35.835,35.139,36.889,34.978,36.549
35.079,35.847,35.126,36.855,34.995,36.493
35.09,35.856,35.108000000000004,36.823,35.016,36.435
35.103,35.86,35.086,36.792,35.038000000000004,36.376999999999995
35.116,35.859,35.062,36.764,35.056999999999995,36.318000000000005
35.13,35.854,35.035,36.741,35.07,36.259
35.141999999999996,35.843,35.008,36.722,35.073,36.2
35.152,35.827,34.981,36.708,35.066,36.14
35.159,35.806999999999995,34.954,36.699,35.049,36.082
35.162,35.783,34.927,36.694,35.021,36.024
35.16,35.757,34.900999999999996,36.693000000000005,34.986,35.97
35.153,35.73,34.876,36.694,34.944,35.918
35.141999999999996,35.704,34.856,36.696,34.898,35.871
35.126,35.679,34.84,36.7,34.85,35.826
35.107,35.658,34.829,36.703,34.801,35.785
35.085,35.64,34.824,36.704,34.754,35.746
35.062,35.626,34.824,36.703,34.709,35.71
35.039,35.616,34.828,36.698,34.668,35.675
35.018,35.608000000000004,34.835,36.691,34.631,35.641
34.999,35.603,34.844,36.679,34.599000000000004,35.607
34.983000000000004,35.601,34.853,36.661,34.571999999999996,35.573
34.97,35.601,34.863,36.635999999999996,34.551,35.539
34.961999999999996,35.602,34.872,36.603,34.534,35.506
34.958,35.604,34.878,36.564,34.522,35.472
34.958,35.606,34.881,36.519,34.513000000000005,35.439
34.961,35.607,34.879,36.468,34.507,35.407
34.967,35.607,34.871,36.412,34.501999999999995,35.375
34.974000000000004,35.607,34.858000000000004,36.354,34.498000000000005,35.343
34.982,35.606,34.84,36.294000000000004,34.493,35.312
34.991,35.607,34.818000000000005,36.236,34.486999999999995,35.281
35.001,35.608000000000004,34.793,36.18,34.481,35.251999999999995
35.012,35.613,34.768,36.128,34.475,35.223
35.025,35.626999999999995,34.743,36.08,34.469,35.194
35.04,35.648,34.72,36.036,34.461999999999996,35.165
35.056999999999995,35.674,34.701,35.998000000000005,34.454,35.135
35.077,35.703,34.686,35.963,34.444,35.104
35.101,35.732,34.675,35.933,34.429,35.071999999999996
35.128,35.756,34.67,35.905,34.412,35.04
35.16,35.772,34.669000000000004,35.878,34.391999999999996,35.009
35.196999999999996,35.781,34.671,35.853,34.369,34.979
35.238,35.78,34.677,35.828,34.346,34.952
35.283,35.771,34.683,35.804,34.321999999999996,34.927
35.334,35.754,34.69,35.778,34.299,34.904
35.389,35.731,34.694,35.75,34.275,34.882
35.446999999999996,35.702,34.696,35.719,34.251999999999995,34.859
35.508,35.669000000000004,34.694,35.684,34.23,34.836
35.569,35.634,34.689,35.646,34.209,34.81
35.63,35.599000000000004,34.679,35.603,34.189,34.783
35.689,35.565,34.667,35.556999999999995,34.172,34.755
35.744,35.533,34.650999999999996,35.508,34.156,34.726
35.793,35.506,34.632,35.455999999999996,34.141999999999996,34.698
35.836999999999996,35.482,34.611,35.402,34.128,34.67
35.872,35.463,34.589,35.348,34.115,34.644
35.9,35.446999999999996,34.567,35.295,34.103,34.619
35.918,35.433,34.546,35.244,34.092,34.596
35.929,35.421,34.528,35.196,34.082,34.573
35.931,35.409,34.510999999999996,35.150999999999996,34.074,34.55
35.926,35.396,34.499,35.11,34.067,34.528
35.916,35.383,34.49,35.074,34.061,34.506
35.902,35.37,34.485,35.043,34.056,34.484
35.885999999999996,35.358000000000004,34.485,35.016999999999996,34.052,34.461999999999996
35.87,35.346,34.489000000000004,34.995,34.05,34.44
35.855,35.333,34.498000000000005,34.978,34.052,34.418
35.839,35.32,34.512,34.963,34.06,34.394
35.828,35.306999999999995,34.534,34.952,34.077,34.369
35.821999999999996,35.294000000000004,34.563,34.943000000000005,34.105,34.344
35.824,35.283,34.599000000000004,34.935,34.146,34.318000000000005
35.833,35.272,34.644,34.926,34.201,34.292
35.846,35.262,34.698,34.911,34.271,34.266
35.861999999999995,35.253,34.76,34.885999999999996,34.355,34.242
35.879,35.244,34.830999999999996,34.853,34.451,34.218
35.895,35.236,34.911,34.811,34.558,34.194
35.909,35.23,34.998000000000005,34.764,34.673,34.169000000000004
35.92,35.224000000000004,35.091,34.715,34.797,34.144
35.925,35.219,35.188,34.667,34.926,34.118
35.926,35.214,35.287,34.623000000000005,35.06,34.089
35.92,35.211,35.385999999999996,34.584,35.196999999999996,34.059
35.908,35.21,35.482,34.55,35.333,34.028
35.891999999999996,35.21,35.575,34.524,35.467,33.996
35.87,35.211,35.662,34.504,35.596,33.964
35.846,35.211999999999996,35.742,34.491,35.719,33.933
35.82,35.213,35.815,34.485,35.835,33.902
35.795,35.213,35.881,34.482,35.945,33.872
35.77,35.213,35.939,34.484,36.048,33.843
35.748000000000005,35.211999999999996,35.991,34.488,36.145,33.813
35.728,35.209,36.036,34.495,36.234,33.783
35.711999999999996,35.205,36.075,34.503,36.313,33.753
35.7,35.199,36.111,34.510999999999996,36.382,33.724000000000004
35.693000000000005,35.192,36.141999999999996,34.516999999999996,36.439,33.695
35.69,35.183,36.17,34.521,36.486,33.666
35.689,35.172,36.195,34.521,36.525,33.638000000000005
35.689,35.161,36.218,34.516999999999996,36.555,33.611
35.69,35.15,36.236999999999995,34.51,36.578,33.586
35.691,35.138000000000005,36.254,34.498000000000005,36.596,33.563
35.689,35.126,36.268,34.482,36.61,33.542
35.685,35.113,36.28,34.461,36.623000000000005,33.525
35.678000000000004,35.1,36.289,34.437,36.634,33.51
35.667,35.088,36.293,34.412,36.645,33.499
35.652,35.076,36.294000000000004,34.387,36.655,33.49
35.637,35.067,36.292,34.361,36.664,33.483000000000004
35.62,35.06,36.286,34.335,36.671,33.478
35.605,35.055,36.278,34.31,36.676,33.472
35.591,35.052,36.269,34.285,36.679,33.463
35.578,35.051,36.258,34.26,36.679,33.451
35.568000000000005,35.052,36.248000000000005,34.235,36.678000000000004,33.436
35.561,35.055,36.236999999999995,34.21,36.674,33.417
35.556,35.059,36.228,34.183,36.667,33.395
35.551,35.062,36.22,34.157,36.659,33.371
35.546,35.064,36.214,34.13,36.65,33.347
35.539,35.064,36.211999999999996,34.104,36.641,33.321999999999996
35.531,35.062,36.213,34.079,36.632,33.299
35.523,35.059,36.217,34.054,36.623000000000005,33.277
35.514,35.055,36.224000000000004,34.03,36.614000000000004,33.257
35.507,35.051,36.233000000000004,34.006,36.604,33.239000000000004
35.501,35.048,36.242,33.982,36.594,33.223
35.498000000000005,35.044000000000004,36.251,33.957,36.583,33.207
35.498000000000005,35.039,36.26,33.931,36.571,33.194
35.501,35.033,36.266999999999996,33.903,36.556999999999995,33.181
35.506,35.027,36.274,33.875,36.541,33.17
35.514,35.02,36.279,33.845,36.523,33.16
35.525,35.013000000000005,36.28,33.815,36.501999999999995,33.15
35.536,35.007,36.279,33.785,36.479,33.141
35.547,35.0,36.275,33.757,36.453,33.131
35.558,34.991,36.268,33.73,36.426,33.123000000000005
35.568000000000005,34.981,36.26,33.704,36.399,33.116
35.578,34.969,36.251,33.68,36.374,33.113
35.586,34.955999999999996,36.241,33.658,36.349000000000004,33.117
35.593,34.942,36.232,33.637,36.326,33.131
35.6,34.93,36.222,33.617,36.304,33.157
35.606,34.918,36.214,33.598,36.283,33.199
35.611,34.907,36.205999999999996,33.580999999999996,36.262,33.257
35.615,34.896,36.198,33.565,36.24,33.334
35.616,34.885999999999996,36.19,33.548,36.216,33.433
35.613,34.875,36.181,33.532,36.192,33.555
35.608000000000004,34.867,36.173,33.516,36.167,33.701
35.599000000000004,34.86,36.163000000000004,33.501999999999995,36.144,33.872
35.586999999999996,34.854,36.153,33.489000000000004,36.123000000000005,34.066
35.573,34.849000000000004,36.14,33.48,36.106,34.283
35.556,34.843,36.125,33.475,36.091,34.521
35.537,34.836,36.109,33.475,36.08,34.775999999999996
35.518,34.828,36.092,33.482,36.069,35.045
35.497,34.819,36.075,33.498000000000005,36.06,35.324
35.477,34.811,36.059,33.524,36.053000000000004,35.608000000000004
35.457,34.804,36.042,33.562,36.047,35.893
35.437,34.798,36.027,33.614000000000004,36.044000000000004,36.174
35.419000000000004,34.792,36.013000000000005,33.681999999999995,36.044000000000004,36.448
35.400999999999996,34.786,36.001,33.766,36.047,36.709
35.385,34.782,35.993,33.869,36.052,36.957
35.369,34.779,35.988,33.99,36.058,37.188
35.354,34.778,35.986,34.132,36.063,37.402
35.342,34.778,35.989000000000004,34.293,36.067,37.598
35.330999999999996,34.778,35.994,34.474000000000004,36.071,37.774
35.323,34.779,36.003,34.672,36.073,37.931999999999995
35.317,34.781,36.014,34.885,36.075,38.07
35.312,34.784,36.025999999999996,35.109,36.077,38.19
35.31,34.788000000000004,36.038000000000004,35.341,36.079,38.293
35.309,34.794000000000004,36.048,35.578,36.080999999999996,38.381
35.309,34.802,36.055,35.817,36.083,38.455
35.311,34.814,36.059,36.056,36.083,38.516999999999996
35.314,34.830999999999996,36.058,36.291,36.079,38.569
35.317,34.853,36.053000000000004,36.518,36.071,38.613
35.32,34.88,36.043,36.736,36.056,38.65
35.321,34.914,36.028,36.941,36.037,38.68
35.321,34.954,36.008,37.133,36.012,38.705
35.318000000000005,35.0,35.985,37.311,35.984,38.724000000000004
35.315,35.052,35.959,37.472,35.953,38.739000000000004
35.31,35.108000000000004,35.933,37.618,35.92,38.75
35.305,35.168,35.907,37.748000000000005,35.885999999999996,38.757
35.299,35.23,35.881,37.864000000000004,35.851,38.76
35.293,35.293,35.858000000000004,37.964,35.816,38.760999999999996
35.286,35.354,35.838,38.051,35.78,38.759
35.278,35.412,35.82,38.123000000000005,35.746,38.755
35.268,35.465,35.804,38.181999999999995,35.711,38.75
35.257,35.514,35.791,38.228,35.675,38.742
35.246,35.559,35.78,38.263000000000005,35.639,38.734
35.233000000000004,35.599000000000004,35.772,38.288000000000004,35.603,38.723
35.22,35.635,35.766,38.304,35.568000000000005,38.711999999999996
35.205999999999996,35.665,35.762,38.313,35.534,38.701
35.193000000000005,35.689,35.759,38.317,35.503,38.689
35.18,35.708,35.757,38.314,35.475,38.677
35.169000000000004,35.721,35.755,38.308,35.45,38.665
35.16,35.731,35.751999999999995,38.299,35.425,38.650999999999996
35.152,35.739000000000004,35.749,38.288000000000004,35.400999999999996,38.635
35.145,35.744,35.744,38.275,35.378,38.615
35.14,35.748000000000005,35.736,38.260999999999996,35.355,38.593
35.135,35.75,35.724000000000004,38.247,35.333,38.565
35.132,35.75,35.709,38.232,35.312,38.532
35.13,35.748000000000005,35.689,38.217,35.291,38.492
35.129,35.743,35.665,38.202,35.271,38.445
35.129,35.736,35.639,38.187,35.251,38.39
35.129,35.726,35.61,38.172,35.23,38.327
35.129,35.715,35.579,38.156,35.21,38.255
35.128,35.703,35.547,38.139,35.19,38.175
35.125,35.69,35.515,38.121,35.17,38.089
35.12,35.678000000000004,35.484,38.101,35.15,37.997
35.111999999999995,35.667,35.455999999999996,38.079,35.131,37.902
35.103,35.658,35.43,38.056,35.111999999999995,37.806
35.091,35.653,35.409,38.032,35.094,37.713
35.076,35.650999999999996,35.391999999999996,38.007,35.076,37.625
35.059,35.650999999999996,35.38,37.981,35.058,37.542
35.041,35.653,35.374,37.954,35.04,37.468
35.023,35.656,35.372,37.929,35.022,37.402
35.006,35.66,35.374,37.904,35.003,37.345
34.992,35.664,35.379,37.88,34.984,37.298
34.979,35.67,35.385999999999996,37.857,34.965,37.259
34.969,35.675,35.394,37.834,34.945,37.23
34.96,35.679,35.400999999999996,37.81,34.924,37.21
34.954,35.681,35.406,37.784,34.903,37.198
34.948,35.68,35.408,37.755,34.88,37.192
34.945,35.675,35.405,37.723,34.858000000000004,37.192
34.942,35.667,35.398,37.687,34.836,37.195
34.939,35.658,35.384,37.647,34.816,37.199
34.937,35.648,35.365,37.604,34.797,37.203
34.934,35.639,35.341,37.559,34.78,37.204
34.931,35.631,35.314,37.510999999999996,34.765,37.203
34.928000000000004,35.624,35.284,37.461999999999996,34.753,37.199
34.924,35.618,35.251999999999995,37.414,34.742,37.19
34.921,35.614000000000004,35.22,37.366,34.731,37.176
34.918,35.611,35.19,37.321,34.721,37.157
34.915,35.609,35.164,37.279,34.71,37.134
34.914,35.606,35.141999999999996,37.242,34.7,37.105
34.915,35.6,35.126999999999995,37.21,34.689,37.071
34.917,35.59,35.119,37.183,34.679,37.031
34.921,35.578,35.118,37.161,34.668,36.986
34.926,35.563,35.123000000000005,37.146,34.657,36.938
34.931,35.547,35.134,37.137,34.645,36.887
34.937,35.531,35.148,37.133,34.633,36.835
34.941,35.516999999999996,35.164,37.134,34.62,36.785
34.944,35.503,35.179,37.138000000000005,34.605,36.736
34.944,35.49,35.192,37.141999999999996,34.588,36.691
34.941,35.48,35.201,37.146,34.568000000000005,36.649
34.935,35.472,35.203,37.146,34.547,36.609
34.927,35.468,35.2,37.143,34.525999999999996,36.571
34.918,35.467,35.189,37.135,34.505,36.535
34.906,35.469,35.173,37.123000000000005,34.485,36.499
34.891999999999996,35.474000000000004,35.152,37.106,34.468,36.464
34.876999999999995,35.481,35.126999999999995,37.083,34.453,36.429
34.861999999999995,35.489000000000004,35.101,37.056999999999995,34.439,36.394
34.849000000000004,35.496,35.074,37.025999999999996,34.428000000000004,36.359
34.839,35.504,35.047,36.992,34.418,36.323
34.832,35.51,35.023,36.955,34.41,36.285
34.83,35.514,35.001999999999995,36.919000000000004,34.403,36.245
34.832,35.516,34.985,36.883,34.395,36.2
34.839,35.515,34.973,36.851,34.387,36.150999999999996
34.851,35.510999999999996,34.966,36.83,34.376,36.098
34.87,35.505,34.964,36.823,34.361999999999995,36.041
34.894,35.497,34.965,36.826,34.346,35.981
34.924,35.486999999999995,34.968,36.836,34.327,35.918
34.959,35.478,34.972,36.849000000000004,34.308,35.853
34.998000000000005,35.469,34.976,36.859,34.29,35.786
35.041,35.461,34.979,36.861,34.274,35.719
35.088,35.455,34.979,36.854,34.259,35.650999999999996
35.138000000000005,35.448,34.976,36.833,34.247,35.580999999999996
35.19,35.44,34.97,36.797,34.234,35.510999999999996
35.244,35.431,34.961,36.745,34.219,35.44
35.298,35.421,34.95,36.68,34.204,35.369
35.351,35.41,34.936,36.602,34.187,35.301
35.403,35.398,34.919000000000004,36.513000000000005,34.171,35.235
35.453,35.385999999999996,34.9,36.418,34.157,35.174
35.501999999999995,35.373000000000005,34.876999999999995,36.318000000000005,34.144,35.118
35.549,35.36,34.853,36.216,34.133,35.067
35.594,35.347,34.826,36.117,34.123000000000005,35.022
35.637,35.334,34.799,36.022,34.114000000000004,34.983000000000004
35.678000000000004,35.32,34.773,35.933,34.105,34.95
35.716,35.306,34.751,35.853,34.098,34.922
35.75,35.292,34.731,35.783,34.09,34.899
35.779,35.28,34.716,35.723,34.083,34.879
35.804,35.271,34.705999999999996,35.674,34.076,34.863
35.823,35.265,34.701,35.635,34.068000000000005,34.849000000000004
35.838,35.263000000000005,34.699,35.606,34.06,34.835
35.846,35.264,34.701,35.585,34.052,34.82
35.849000000000004,35.266999999999996,34.705,35.57,34.044000000000004,34.804
35.847,35.27,34.711,35.56,34.038000000000004,34.783
35.84,35.274,34.717,35.552,34.033,34.759
35.829,35.275999999999996,34.72,35.544000000000004,34.032,34.731
35.814,35.277,34.719,35.535,34.035,34.7
35.797,35.275999999999996,34.713,35.522,34.044000000000004,34.666
35.778,35.273,34.703,35.505,34.058,34.63
35.758,35.266999999999996,34.688,35.484,34.08,34.593
35.738,35.258,34.669000000000004,35.459,34.111,34.555
35.719,35.246,34.649,35.43,34.15,34.516
35.701,35.233000000000004,34.63,35.399,34.198,34.477
35.687,35.218,34.615,35.367,34.256,34.438
35.675,35.203,34.606,35.333,34.325,34.399
35.665,35.187,34.606,35.298,34.406,34.361
35.658,35.172,34.618,35.263000000000005,34.498000000000005,34.326
35.652,35.156,34.644,35.229,34.601,34.294000000000004
35.647,35.14,34.684,35.196,34.715,34.268
35.641999999999996,35.124,34.74,35.166,34.835,34.247
35.638000000000005,35.108000000000004,34.811,35.139,34.96,34.231
35.634,35.093,34.897,35.114000000000004,35.088,34.219
35.63,35.076,34.997,35.091,35.216,34.21
35.626999999999995,35.059,35.107,35.07,35.343,34.203
35.624,35.041,35.224000000000004,35.051,35.467,34.196
35.621,35.022,35.346,35.032,35.586999999999996,34.189
35.619,35.004,35.469,35.014,35.703,34.179
35.617,34.988,35.589,34.996,35.811,34.166
35.616,34.975,35.704,34.978,35.912,34.149
35.614000000000004,34.965,35.81,34.959,36.005,34.129
35.613,34.959,35.905,34.94,36.089,34.105
35.61,34.958,35.988,34.921,36.164,34.078
35.606,34.961,36.056999999999995,34.903,36.231,34.049
35.601,34.968,36.113,34.885,36.287,34.016999999999996
35.594,34.978,36.156,34.867,36.334,33.986
35.584,34.989000000000004,36.188,34.848,36.371,33.955999999999996
35.573,35.0,36.211,34.828,36.398,33.929
35.559,35.009,36.225,34.806,36.417,33.905
35.543,35.015,36.234,34.783,36.43,33.885999999999996
35.524,35.016999999999996,36.238,34.758,36.436,33.871
35.503,35.013000000000005,36.24,34.732,36.439,33.86
35.476,35.006,36.242,34.705,36.438,33.851
35.441,34.995,36.245,34.675,36.436,33.844
35.402,34.982,36.251,34.645,36.431999999999995,33.838
