Trial 1:0back,Trial 2:2back,Trial 3:3back,Trial 4:2back,Trial 5:3back,Trial 6:0back
35.881,36.719,34.492,31.895,35.368,-0.5539999999999999
35.898,36.696,34.496,31.831,35.384,-5.615
35.915,36.681999999999995,34.505,31.768,35.405,-10.950999999999999
35.93,36.677,34.519,31.708000000000002,35.431,-16.409000000000002
35.945,36.681999999999995,34.537,31.65,35.463,-21.831
35.96,36.699,34.561,31.596,35.501999999999995,-27.066
35.974000000000004,36.726,34.591,31.545,35.547,-31.974
35.986999999999995,36.764,34.626999999999995,31.498,35.6,-36.439
36.001,36.813,34.669000000000004,31.454,35.658,-40.373000000000005
36.014,36.872,34.72,31.413,35.723,-43.715
36.025,36.941,34.779,31.375,35.793,-46.437
36.035,37.019,34.847,31.340999999999998,35.868,-48.538000000000004
36.042,37.102,34.924,31.31,35.945,-50.042
36.048,37.19,35.013000000000005,31.283,36.024,-50.997
36.051,37.279,35.111,31.26,36.102,-51.463
36.053000000000004,37.368,35.22,31.241,36.179,-51.515
36.055,37.455999999999996,35.339,31.226,36.253,-51.232
36.055,37.541,35.467,31.215,36.323,-50.69
36.053000000000004,37.621,35.602,31.208000000000002,36.388000000000005,-49.945
36.051,37.694,35.743,31.206,36.448,-49.036
36.046,37.76,35.887,31.209,36.5,-47.981
36.038000000000004,37.815,36.033,31.217,36.546,-46.785
36.029,37.86,36.178000000000004,31.230999999999998,36.585,-45.446999999999996
36.018,37.894,36.321999999999996,31.250999999999998,36.617,-43.965
36.006,37.915,36.463,31.278000000000002,36.641999999999996,-42.343
35.993,37.924,36.598,31.313000000000002,36.66,-40.592
35.98,37.921,36.727,31.358,36.671,-38.738
35.967,37.905,36.847,31.413,36.676,-36.825
35.954,37.876,36.959,31.478,36.675,-34.902
35.941,37.834,37.06,31.553,36.668,-33.018
35.927,37.779,37.15,31.639,36.657,-31.219
35.91,37.711999999999996,37.228,31.734,36.641,-29.534000000000002
35.891999999999996,37.635,37.295,31.839000000000002,36.621,-27.975
35.873000000000005,37.548,37.351,31.951,36.598,-26.533
35.852,37.452,37.396,32.07,36.571999999999996,-25.18
35.830999999999996,37.349000000000004,37.433,32.194,36.545,-23.866999999999997
35.809,37.24,37.463,32.321,36.516999999999996,-22.534000000000002
35.787,37.125,37.486,32.449,36.489000000000004,-21.116
35.765,37.005,37.505,32.577,36.461999999999996,-19.552
35.742,36.882,37.519,32.704,36.435,-17.785
35.719,36.756,37.53,32.827,36.408,-15.763
35.696999999999996,36.626,37.539,32.944,36.383,-13.442
35.676,36.493,37.544000000000004,33.055,36.358000000000004,-10.779000000000002
35.656,36.357,37.545,33.158,36.334,-7.7379999999999995
35.638000000000005,36.217,37.544000000000004,33.251999999999995,36.312,-4.29
35.621,36.074,37.539,33.336,36.29,-0.419
35.604,35.928000000000004,37.53,33.41,36.268,3.8789999999999996
35.586999999999996,35.779,37.516,33.475,36.247,8.594
35.569,35.628,37.499,33.531,36.225,13.697000000000001
35.551,35.476,37.477,33.579,36.202,19.139
35.532,35.321999999999996,37.451,33.618,36.18,24.861
35.514,35.169000000000004,37.422,33.649,36.157,30.789
35.495,35.016,37.389,33.674,36.135999999999996,36.844
35.477,34.863,37.355,33.691,36.115,42.942
35.459,34.711,37.318000000000005,33.703,36.095,48.997
35.443000000000005,34.56,37.28,33.71,36.076,54.926
35.427,34.41,37.239000000000004,33.711999999999996,36.056999999999995,60.651
35.411,34.260999999999996,37.196,33.71,36.039,66.105
35.396,34.113,37.15,33.705,36.021,71.234
35.381,33.967,37.102,33.696999999999996,36.003,75.99600000000001
35.366,33.821999999999996,37.052,33.687,35.985,80.369
35.352,33.678000000000004,37.0,33.677,35.967,84.34299999999999
35.338,33.536,36.946999999999996,33.667,35.95,87.927
35.324,33.395,36.893,33.657,35.933,91.145
35.31,33.255,36.838,33.649,35.917,94.03299999999999
35.295,33.117,36.782,33.641,35.902,96.634
35.278,32.98,36.726,33.635,35.887,98.99799999999999
35.260999999999996,32.844,36.67,33.632,35.874,101.17399999999999
35.243,32.708,36.614000000000004,33.63,35.863,103.209
35.225,32.571999999999996,36.558,33.63,35.853,105.14399999999999
35.207,32.436,36.503,33.633,35.846,107.014
35.19,32.301,36.449,33.635999999999996,35.84,108.845
35.174,32.166,36.397,33.641,35.836,110.655
35.157,32.031,36.348,33.648,35.833,112.448
35.141,31.896,36.302,33.655,35.830999999999996,114.22200000000001
35.125,31.759,36.26,33.663000000000004,35.83,115.964
35.11,31.623,36.222,33.672,35.83,117.654
35.096,31.486,36.189,33.681,35.830999999999996,119.26799999999999
35.084,31.348000000000003,36.161,33.69,35.832,120.78
35.074,31.211,36.137,33.699,35.835,122.16799999999999
35.066,31.073,36.118,33.705999999999996,35.839,123.415
35.059,30.935,36.103,33.713,35.845,124.508
35.053000000000004,30.796999999999997,36.093,33.719,35.853,125.44200000000001
35.049,30.659000000000002,36.086999999999996,33.724000000000004,35.861999999999995,126.21799999999999
35.044000000000004,30.52,36.084,33.727,35.873000000000005,126.84200000000001
35.04,30.383000000000003,36.084,33.73,35.885,127.325
35.037,30.247,36.086999999999996,33.731,35.899,127.68
35.035,30.113000000000003,36.092,33.732,35.913000000000004,127.92299999999999
35.034,29.980999999999998,36.1,33.732,35.928000000000004,128.07
35.034,29.851999999999997,36.11,33.733000000000004,35.944,128.139
35.034,29.725,36.122,33.736,35.96,128.144
35.035,29.601,36.135999999999996,33.739000000000004,35.976,128.099
35.035,29.48,36.15,33.745,35.992,128.013
35.036,29.361,36.165,33.753,36.007,127.89399999999999
35.036,29.243000000000002,36.179,33.763000000000005,36.021,127.74600000000001
35.037,29.127,36.192,33.775,36.035,127.57
35.038000000000004,29.011999999999997,36.205,33.789,36.047,127.366
35.039,28.899,36.217,33.803000000000004,36.058,127.12700000000001
35.04,28.788,36.228,33.818000000000005,36.067,126.84700000000001
35.04,28.678,36.239000000000004,33.834,36.075,126.515
35.038000000000004,28.570999999999998,36.25,33.851,36.08,126.12200000000001
35.035,28.465,36.26,33.87,36.084,125.65899999999999
35.03,28.363000000000003,36.269,33.89,36.085,125.12100000000001
35.023,28.263,36.278,33.912,36.084,124.506
35.015,28.166,36.286,33.935,36.080999999999996,123.819
35.005,28.070999999999998,36.294000000000004,33.959,36.076,123.072
34.994,27.978,36.301,33.984,36.069,122.28200000000001
34.982,27.886999999999997,36.306,34.009,36.06,121.46700000000001
34.97,27.798000000000002,36.31,34.034,36.049,120.646
34.957,27.712,36.311,34.06,36.036,119.83200000000001
34.945,27.627,36.31,34.086999999999996,36.022,119.025
34.931999999999995,27.545,36.306,34.114000000000004,36.006,118.211
34.919000000000004,27.465,36.3,34.141999999999996,35.989000000000004,117.37
34.908,27.386,36.291,34.169000000000004,35.97,116.479
34.897,27.309,36.279,34.196999999999996,35.949,115.516
34.885999999999996,27.234,36.266,34.224000000000004,35.929,114.464
34.876,27.160999999999998,36.25,34.25,35.908,113.31200000000001
34.865,27.089000000000002,36.233000000000004,34.275,35.887,112.053
34.855,27.019000000000002,36.215,34.297,35.868,110.691
34.844,26.95,36.195,34.318000000000005,35.85,109.238
34.833,26.883000000000003,36.175,34.336,35.834,107.71
34.821999999999996,26.816999999999997,36.155,34.351,35.82,106.131
34.812,26.753,36.134,34.363,35.806,104.527
34.802,26.691,36.111999999999995,34.372,35.793,102.928
34.794000000000004,26.634,36.09,34.378,35.781,101.36200000000001
34.787,26.581,36.066,34.382,35.77,99.854
34.781,26.533,36.04,34.384,35.759,98.426
34.775999999999996,26.491,36.010999999999996,34.384,35.748000000000005,97.096
34.773,26.456,35.98,34.382,35.736,95.875
34.772,26.427,35.946999999999996,34.379,35.723,94.77
34.772,26.406,35.911,34.374,35.711,93.78299999999999
34.775,26.394000000000002,35.874,34.369,35.696999999999996,92.90899999999999
34.781,26.391,35.835,34.361999999999995,35.683,92.141
34.79,26.396,35.796,34.356,35.668,91.469
34.803000000000004,26.410999999999998,35.756,34.349000000000004,35.652,90.882
34.821999999999996,26.434,35.716,34.342,35.635999999999996,90.365
34.845,26.465999999999998,35.677,34.335,35.62,89.906
34.876,26.504,35.638000000000005,34.329,35.606,89.492
34.914,26.546999999999997,35.6,34.323,35.592,89.109
34.96,26.595,35.564,34.317,35.579,88.745
35.015,26.646,35.529,34.312,35.566,88.391
35.08,26.699,35.496,34.306,35.555,88.037
35.154,26.754,35.464,34.299,35.544000000000004,87.677
35.236999999999995,26.809,35.433,34.292,35.534,87.304
35.329,26.866,35.402,34.284,35.523,86.916
35.428000000000004,26.921999999999997,35.372,34.275999999999996,35.513000000000005,86.509
35.535,26.979,35.342,34.268,35.503,86.083
35.647,27.035999999999998,35.311,34.259,35.494,85.63600000000001
35.762,27.092,35.281,34.25,35.485,85.17
35.879,27.147,35.249,34.24,35.476,84.68700000000001
35.994,27.201,35.217,34.23,35.469,84.189
36.105,27.255,35.184,34.219,35.464,83.679
36.211,27.307,35.152,34.209,35.461,83.161
36.309,27.357,35.121,34.198,35.459,82.641
36.4,27.404,35.091,34.186,35.459,82.12
36.481,27.448,35.065,34.174,35.46,81.604
36.553000000000004,27.489,35.041,34.161,35.463,81.096
36.616,27.526,35.019,34.149,35.467,80.597
36.669000000000004,27.56,35.0,34.138000000000005,35.473,80.112
36.713,27.590999999999998,34.982,34.129,35.48,79.641
36.747,27.616999999999997,34.965,34.12,35.488,79.186
36.772,27.641,34.946999999999996,34.111999999999995,35.499,78.745
36.787,27.660999999999998,34.929,34.105,35.513000000000005,78.319
36.794000000000004,27.678,34.911,34.098,35.529,77.905
36.793,27.691999999999997,34.891,34.091,35.549,77.503
36.784,27.701,34.869,34.085,35.574,77.11
36.771,27.706,34.846,34.079,35.603,76.72399999999999
36.751999999999995,27.706999999999997,34.821,34.075,35.638000000000005,76.342
36.731,27.704,34.795,34.071999999999996,35.68,75.96300000000001
36.705999999999996,27.698,34.768,34.07,35.728,75.583
36.678000000000004,27.689,34.74,34.068000000000005,35.784,75.202
36.648,27.679000000000002,34.711999999999996,34.068000000000005,35.846,74.819
36.615,27.666999999999998,34.684,34.068000000000005,35.914,74.434
36.580999999999996,27.655,34.656,34.069,35.986999999999995,74.045
36.547,27.642,34.629,34.069,36.065,73.654
36.515,27.628,34.602,34.07,36.146,73.259
36.484,27.613000000000003,34.577,34.07,36.229,72.863
36.455,27.596999999999998,34.553000000000004,34.07,36.312,72.465
36.427,27.58,34.532,34.068000000000005,36.395,72.068
36.398,27.563000000000002,34.513000000000005,34.066,36.476,71.672
36.37,27.545,34.497,34.063,36.554,71.283
36.341,27.528000000000002,34.484,34.06,36.626999999999995,70.903
36.312,27.51,34.472,34.056,36.694,70.538
36.283,27.494,34.461,34.052,36.754,70.189
36.254,27.479,34.452,34.047,36.806999999999995,69.857
36.225,27.465,34.444,34.042,36.852,69.543
36.196999999999996,27.454,34.438,34.037,36.89,69.243
36.168,27.445999999999998,34.433,34.033,36.92,68.952
36.139,27.441,34.431999999999995,34.029,36.943000000000005,68.664
36.109,27.44,34.434,34.025999999999996,36.959,68.372
36.079,27.441,34.441,34.025,36.969,68.067
36.049,27.444000000000003,34.453,34.025,36.972,67.743
36.019,27.449,34.472,34.027,36.97,67.39399999999999
35.99,27.456,34.496,34.029,36.963,67.016
35.961,27.464000000000002,34.529,34.031,36.953,66.607
35.931999999999995,27.471,34.57,34.033,36.94,66.166
35.903,27.478,34.619,34.033,36.927,65.695
35.874,27.485,34.679,34.032,36.912,65.196
35.844,27.491,34.748000000000005,34.03,36.898,64.67399999999999
35.814,27.498,34.828,34.025999999999996,36.884,64.134
35.785,27.506,34.918,34.023,36.871,63.583
35.757,27.516,35.019,34.018,36.857,63.028
35.732,27.53,35.128,34.014,36.842,62.474
35.711,27.549,35.247,34.01,36.827,61.928999999999995
35.693000000000005,27.576,35.372,34.006,36.81,61.398
35.678000000000004,27.611,35.505,34.001999999999995,36.792,60.887
35.667,27.658,35.641999999999996,33.998000000000005,36.773,60.398
35.659,27.717,35.784,33.994,36.753,59.93600000000001
35.654,27.789,35.928000000000004,33.991,36.732,59.501999999999995
35.650999999999996,27.877,36.074,33.988,36.711999999999996,59.097
35.650999999999996,27.980999999999998,36.221,33.985,36.691,58.721000000000004
35.655,28.099,36.366,33.983000000000004,36.672,58.375
35.661,28.230999999999998,36.508,33.981,36.653,58.059
35.671,28.375999999999998,36.646,33.98,36.635999999999996,57.771
35.681999999999995,28.531999999999996,36.778,33.981,36.619,57.511
35.695,28.698,36.904,33.983000000000004,36.601,57.278999999999996
35.71,28.873,37.021,33.986999999999995,36.583,57.071000000000005
35.725,29.053,37.13,33.995,36.565,56.887
35.742,29.237,37.228,34.006,36.545,56.724
35.760999999999996,29.424,37.315,34.024,36.524,56.581
35.782,29.611,37.391999999999996,34.048,36.501999999999995,56.456
35.805,29.796999999999997,37.457,34.080999999999996,36.479,56.346000000000004
35.829,29.979,37.512,34.124,36.455,56.251000000000005
35.852,30.156,37.558,34.177,36.43,56.168
35.874,30.325,37.594,34.241,36.406,56.095
35.894,30.486,37.621,34.317,36.382,56.028999999999996
35.911,30.638,37.639,34.403,36.358000000000004,55.968999999999994
35.925,30.78,37.649,34.499,36.336,55.91
35.936,30.91,37.652,34.606,36.315,55.851000000000006
35.945,31.029,37.648,34.722,36.295,55.787
35.952,31.136999999999997,37.638000000000005,34.845,36.279,55.718
35.958,31.234,37.623000000000005,34.973,36.266,55.64
35.963,31.322,37.604,35.105,36.255,55.553000000000004
35.965,31.399,37.582,35.238,36.249,55.455
35.966,31.465,37.556999999999995,35.372,36.245,55.347
35.964,31.521,37.53,35.504,36.245,55.228
35.961,31.566,37.501999999999995,35.633,36.246,55.1
35.957,31.601,37.472,35.758,36.25,54.964
35.952,31.625,37.441,35.876,36.255,54.824
35.946,31.639,37.408,35.985,36.260999999999996,54.681999999999995
35.939,31.641,37.375,36.085,36.268,54.543
35.931,31.634,37.341,36.174,36.275999999999996,54.41
35.922,31.618000000000002,37.306,36.251,36.285,54.29
35.91,31.594,37.271,36.315,36.294000000000004,54.185
35.897,31.561999999999998,37.236,36.367,36.303000000000004,54.099
35.882,31.524,37.2,36.406,36.314,54.034
35.866,31.48,37.164,36.433,36.325,53.99100000000001
35.848,31.430999999999997,37.126,36.45,36.336999999999996,53.972
35.83,31.378,37.088,36.455999999999996,36.351,53.975
35.812,31.323,37.048,36.454,36.366,54.0
35.793,31.266,37.007,36.446,36.383,54.044
35.775,31.209,36.964,36.433,36.402,54.104
35.756,31.153000000000002,36.919000000000004,36.415,36.422,54.181000000000004
35.738,31.099,36.872,36.394,36.442,54.275
35.721,31.048000000000002,36.821999999999996,36.369,36.463,54.386
35.704,31.0,36.77,36.342,36.484,54.519
35.687,30.956,36.715,36.313,36.504,54.674
35.67,30.914,36.659,36.282,36.523,54.855
35.654,30.875,36.603,36.25,36.54,55.06
35.635999999999996,30.839000000000002,36.547,36.218,36.556,55.29
35.618,30.804000000000002,36.492,36.185,36.569,55.54
35.599000000000004,30.77,36.439,36.152,36.579,55.803999999999995
35.58,30.737,36.388000000000005,36.12,36.586999999999996,56.077
35.561,30.704,36.34,36.086999999999996,36.592,56.351000000000006
35.541,30.669,36.295,36.054,36.595,56.619
35.522,30.634,36.253,36.022,36.594,56.875
35.501,30.599,36.214,35.991,36.591,57.111000000000004
35.48,30.563000000000002,36.18,35.961,36.583,57.32
35.458,30.526999999999997,36.149,35.931,36.573,57.494
35.436,30.49,36.123000000000005,35.903,36.56,57.629
35.415,30.453000000000003,36.103,35.875,36.545,57.721000000000004
35.394,30.416999999999998,36.089,35.848,36.529,57.766000000000005
35.374,30.383000000000003,36.08,35.823,36.513000000000005,57.761
35.355,30.35,36.077,35.798,36.496,57.706
35.335,30.319000000000003,36.079,35.773,36.48,57.6
35.316,30.291,36.086,35.749,36.464,57.446000000000005
35.295,30.268,36.097,35.725,36.448,57.248000000000005
35.274,30.250999999999998,36.111,35.7,36.431999999999995,57.00899999999999
35.251999999999995,30.241999999999997,36.128,35.675,36.416,56.733999999999995
35.231,30.243000000000002,36.146,35.650999999999996,36.4,56.43
35.211999999999996,30.255,36.165,35.626999999999995,36.383,56.101000000000006
35.194,30.28,36.184,35.604,36.365,55.755
35.178000000000004,30.32,36.205,35.579,36.346,55.398999999999994
35.165,30.374000000000002,36.226,35.554,36.325,55.037
35.153,30.441999999999997,36.246,35.528,36.303000000000004,54.676
35.141999999999996,30.523000000000003,36.266999999999996,35.5,36.279,54.32
35.133,30.614,36.287,35.471,36.254,53.973
35.124,30.714000000000002,36.306,35.441,36.228,53.638999999999996
35.116,30.819000000000003,36.323,35.41,36.202,53.32
35.11,30.925,36.338,35.379,36.175,53.019
35.104,31.031,36.351,35.348,36.15,52.739
35.098,31.133000000000003,36.36,35.318000000000005,36.125,52.479
35.093,31.228,36.368,35.29,36.102,52.24
35.086999999999996,31.315,36.373000000000005,35.265,36.080999999999996,52.019
35.08,31.392,36.376,35.243,36.06,51.81100000000001
35.073,31.458000000000002,36.376999999999995,35.225,36.041,51.61
35.065,31.513,36.376999999999995,35.21,36.024,51.403999999999996
35.058,31.555999999999997,36.376,35.2,36.009,51.181999999999995
35.051,31.588,36.373000000000005,35.192,35.995,50.923
35.045,31.61,36.369,35.189,35.984,50.602
35.039,31.621,36.364000000000004,35.189,35.974000000000004,50.183
35.035,31.623,36.357,35.194,35.965,49.623999999999995
35.031,31.618000000000002,36.348,35.202,35.957,48.876000000000005
35.027,31.607,36.338,35.213,35.949,47.886
35.023,31.590999999999998,36.327,35.226,35.941,46.602
35.018,31.573,36.313,35.242,35.933,44.978
35.014,31.555999999999997,36.298,35.26,35.925,42.977
35.009,31.541999999999998,36.282,35.279,35.916,40.579
35.005,31.533,36.264,35.299,35.907,37.779
35.001999999999995,31.531999999999996,36.245,35.32,35.899,34.595
34.998000000000005,31.54,36.226,35.34,35.891,31.063000000000002
34.995,31.558000000000003,36.205,35.36,35.883,27.241
34.991,31.586,36.184,35.379,35.875,23.205
34.988,31.625,36.163000000000004,35.396,35.868,19.047
34.985,31.674,36.141999999999996,35.411,35.86,14.866
34.982,31.730999999999998,36.121,35.424,35.853,10.765999999999998
34.98,31.794,36.098,35.435,35.846,6.85
34.978,31.862,36.075,35.444,35.839,3.216
34.975,31.932,36.051,35.45,35.833,-0.049
34.973,32.003,36.025999999999996,35.453,35.826,-2.87
34.97,32.071999999999996,36.001,35.453,35.82,-5.188
34.966,32.138000000000005,35.974000000000004,35.449,35.813,-6.961
34.963,32.2,35.946,35.443000000000005,35.806,-8.161
34.959,32.255,35.916,35.435,35.799,-8.779
34.955,32.302,35.883,35.424,35.791,-8.818
34.951,32.342,35.848,35.411,35.783,-8.295
34.946,32.373000000000005,35.81,35.397,35.775,-7.239
34.941,32.396,35.771,35.382,35.766999999999996,-5.684
34.935,32.412,35.73,35.365,35.758,-3.6719999999999997
34.928000000000004,32.421,35.688,35.349000000000004,35.749,-1.245
34.919000000000004,32.424,35.647,35.333,35.739000000000004,1.5490000000000002
34.909,32.422,35.608000000000004,35.317,35.729,4.663
34.9,32.418,35.57,35.302,35.718,8.052
34.89,32.413000000000004,35.534,35.287,35.708,11.669
34.882,32.411,35.499,35.272,35.699,15.47
34.875,32.411,35.466,35.258,35.69,19.412
34.87,32.414,35.434,35.243,35.683,23.456
34.867,32.421,35.403,35.229,35.678000000000004,27.566
34.865,32.431,35.373000000000005,35.214,35.674,31.71
34.865,32.445,35.343,35.199,35.673,35.859
34.867,32.46,35.312,35.184,35.673,39.99
34.872,32.476,35.281,35.17,35.675,44.081
34.883,32.493,35.25,35.155,35.679,48.117
34.9,32.508,35.218,35.141,35.684,52.083999999999996
34.923,32.522,35.187,35.126999999999995,35.692,55.967
34.954,32.533,35.155,35.111999999999995,35.703,59.755
34.992,32.541,35.125,35.096,35.716,63.433
35.037,32.545,35.095,35.078,35.732,66.985
35.089,32.546,35.067,35.06,35.751999999999995,70.39399999999999
35.149,32.541,35.04,35.041,35.775,73.642
35.217,32.532,35.014,35.02,35.803000000000004,76.708
35.293,32.519,34.991,35.0,35.835,79.575
35.376,32.504,34.968,34.979,35.872,82.22399999999999
35.465,32.485,34.946999999999996,34.958,35.915,84.641
35.558,32.463,34.927,34.937,35.963,86.81700000000001
35.654,32.438,34.907,34.917,36.016999999999996,88.742
35.751999999999995,32.41,34.885999999999996,34.897,36.075,90.414
35.849000000000004,32.378,34.864000000000004,34.878,36.138000000000005,91.833
35.945,32.343,34.841,34.86,36.205,93.001
36.038000000000004,32.304,34.816,34.842,36.275,93.926
36.128,32.262,34.79,34.825,36.348,94.618
36.214,32.217,34.762,34.808,36.424,95.09100000000001
36.295,32.17,34.734,34.791,36.501,95.363
36.37,32.121,34.705999999999996,34.775,36.578,95.455
36.437,32.071999999999996,34.68,34.758,36.655,95.39200000000001
36.496,32.021,34.654,34.742,36.728,95.199
36.548,31.97,34.629,34.727,36.798,94.906
36.59,31.919,34.605,34.711999999999996,36.863,94.544
36.623000000000005,31.868000000000002,34.582,34.698,36.922,94.148
36.648,31.816999999999997,34.56,34.684,36.974000000000004,93.74799999999999
36.663000000000004,31.766,34.539,34.67,37.019,93.374
36.671,31.717,34.519,34.657,37.056999999999995,93.052
36.67,31.67,34.501,34.643,37.086999999999996,92.802
36.662,31.627,34.483000000000004,34.63,37.11,92.63799999999999
36.648,31.589000000000002,34.466,34.616,37.126,92.573
36.628,31.558000000000003,34.451,34.603,37.134,92.61
36.604,31.535,34.437,34.591,37.137,92.75200000000001
36.577,31.523000000000003,34.425,34.579,37.132,92.991
36.547,31.521,34.414,34.567,37.122,93.32
36.516,31.531,34.406,34.556999999999995,37.106,93.723
36.482,31.554000000000002,34.4,34.547,37.085,94.18700000000001
36.448,31.588,34.396,34.539,37.062,94.694
36.413000000000004,31.635,34.395,34.53,37.036,95.229
36.376999999999995,31.691,34.399,34.522,37.009,95.774
36.34,31.755,34.409,34.514,36.982,96.31700000000001
36.302,31.825,34.426,34.506,36.955,96.84100000000001
36.265,31.899,34.451,34.498000000000005,36.928000000000004,97.336
36.228,31.973000000000003,34.485,34.492,36.903,97.789
36.192,32.047,34.53,34.485,36.879,98.194
36.157,32.118,34.585,34.479,36.859,98.544
36.122,32.186,34.650999999999996,34.473,36.84,98.836
36.086999999999996,32.251,34.728,34.468,36.823,99.069
36.053000000000004,32.313,34.817,34.461999999999996,36.808,99.243
36.021,32.375,34.916,34.455999999999996,36.793,99.35600000000001
35.99,32.438,35.027,34.45,36.778,99.40899999999999
35.959,32.507,35.147,34.443000000000005,36.763000000000005,99.40100000000001
35.929,32.584,35.277,34.435,36.746,99.32799999999999
35.899,32.672,35.416,34.427,36.728,99.189
35.868,32.774,35.561,34.418,36.709,98.984
35.836,32.894,35.711999999999996,34.41,36.689,98.711
35.802,33.032,35.867,34.403,36.668,98.37100000000001
35.768,33.19,36.024,34.397,36.645,97.964
35.733000000000004,33.368,36.181999999999995,34.391,36.623000000000005,97.493
35.698,33.563,36.34,34.387,36.599000000000004,96.95700000000001
35.663000000000004,33.774,36.497,34.383,36.576,96.35799999999999
35.63,33.998000000000005,36.649,34.378,36.554,95.695
35.598,34.232,36.797,34.373000000000005,36.532,94.97
35.567,34.47,36.938,34.367,36.510999999999996,94.181
35.537,34.708,37.071,34.36,36.492,93.32799999999999
35.508,34.941,37.194,34.353,36.475,92.41
35.483000000000004,35.161,37.308,34.343,36.46,91.429
35.461999999999996,35.366,37.411,34.332,36.446,90.383
35.445,35.551,37.503,34.32,36.433,89.272
35.433,35.715,37.584,34.306,36.421,88.096
35.427,35.856,37.653,34.293,36.409,86.855
35.424,35.972,37.711,34.281,36.398,85.54899999999999
35.425,36.063,37.758,34.269,36.387,84.179
35.429,36.13,37.794000000000004,34.259,36.375,82.744
35.436,36.173,37.818000000000005,34.249,36.365,81.247
35.445,36.194,37.832,34.242,36.354,79.69
35.457,36.196,37.836999999999996,34.236,36.345,78.07600000000001
35.472,36.179,37.832,34.231,36.336,76.40899999999999
35.49,36.146,37.819,34.227,36.33,74.697
35.509,36.099000000000004,37.799,34.223,36.327,72.947
35.531,36.04,37.773,34.219,36.326,71.169
35.553000000000004,35.971,37.741,34.215,36.327,69.375
35.576,35.895,37.705,34.211,36.330999999999996,67.577
35.599000000000004,35.814,37.666,34.207,36.336999999999996,65.788
35.621,35.73,37.625,34.205,36.344,64.021
35.644,35.645,37.583,34.203,36.352,62.288999999999994
35.667,35.561,37.54,34.205,36.36,60.604
35.69,35.477,37.499,34.209,36.368,58.975
35.713,35.396,37.458,34.219,36.375,57.413999999999994
35.735,35.318000000000005,37.419000000000004,34.235,36.381,55.928999999999995
35.754,35.245,37.38,34.258,36.385,54.526
35.77,35.177,37.342,34.29,36.388000000000005,53.21
35.782,35.111,37.304,34.332,36.39,51.982
35.79,35.048,37.265,34.384,36.39,50.843
35.796,34.986,37.226,34.448,36.389,49.79
35.8,34.925,37.185,34.524,36.387,48.818999999999996
35.803000000000004,34.863,37.143,34.613,36.383,47.922
35.804,34.799,37.1,34.713,36.38,47.092
35.804,34.734,37.056999999999995,34.824,36.376,46.32
35.802,34.666,37.012,34.945,36.371,45.599
35.797,34.595,36.967,35.074,36.367,44.92100000000001
35.79,34.52,36.922,35.209,36.361999999999995,44.281000000000006
35.78,34.443000000000005,36.875,35.35,36.357,43.673
35.769,34.363,36.827,35.493,36.352,43.096000000000004
35.756,34.282,36.779,35.638000000000005,36.346,42.55
35.741,34.2,36.73,35.783,36.34,42.037
35.725,34.117,36.68,35.924,36.334,41.56
35.708,34.035,36.628,36.06,36.328,41.123999999999995
35.689,33.954,36.575,36.19,36.321999999999996,40.734
35.669000000000004,33.875,36.521,36.31,36.316,40.397
35.647,33.801,36.466,36.42,36.309,40.118
35.626,33.731,36.41,36.519,36.303000000000004,39.902
35.606,33.667,36.355,36.605,36.297,39.751999999999995
35.586,33.61,36.301,36.678000000000004,36.291,39.672
35.568000000000005,33.559,36.249,36.739000000000004,36.285,39.66
35.551,33.516,36.2,36.787,36.279,39.715
35.534,33.481,36.155,36.823,36.273,39.834
35.516999999999996,33.455,36.115,36.848,36.266,40.01
35.5,33.437,36.080999999999996,36.863,36.258,40.236
35.483000000000004,33.427,36.051,36.87,36.25,40.506
35.467,33.424,36.029,36.87,36.241,40.809
35.45,33.428000000000004,36.013000000000005,36.864000000000004,36.231,41.137
35.431999999999995,33.438,36.004,36.853,36.221,41.48
35.415,33.454,36.001999999999995,36.838,36.21,41.828
35.396,33.475,36.007,36.819,36.199,42.173
35.376999999999995,33.499,36.018,36.796,36.186,42.505
35.356,33.524,36.033,36.77,36.173,42.818999999999996
35.335,33.55,36.053000000000004,36.743,36.158,43.106
35.314,33.576,36.075,36.711999999999996,36.141999999999996,43.361000000000004
35.292,33.601,36.099000000000004,36.68,36.125,43.58
35.27,33.625,36.123000000000005,36.646,36.109,43.761
35.248000000000005,33.647,36.146,36.611,36.092,43.902
35.226,33.667,36.168,36.575,36.076,44.003
35.204,33.684,36.188,36.539,36.061,44.066
35.181,33.7,36.205999999999996,36.505,36.046,44.095
35.157,33.715,36.221,36.472,36.032,44.093
35.133,33.729,36.235,36.44,36.019,44.065
35.109,33.741,36.247,36.41,36.008,44.016000000000005
35.086999999999996,33.751,36.259,36.382,35.997,43.951
35.067,33.757,36.27,36.356,35.986,43.875
35.05,33.760999999999996,36.28,36.332,35.977,43.793
35.035,33.760999999999996,36.288000000000004,36.308,35.967,43.711000000000006
35.023,33.758,36.294000000000004,36.286,35.957,43.631
35.010999999999996,33.751999999999995,36.298,36.265,35.946999999999996,43.556000000000004
34.999,33.742,36.3,36.245,35.937,43.489
34.989000000000004,33.73,36.298,36.224000000000004,35.926,43.43
34.98,33.716,36.295,36.204,35.916,43.381
34.972,33.701,36.288000000000004,36.181999999999995,35.906,43.338
34.966,33.686,36.28,36.159,35.897,43.301
34.961,33.672,36.27,36.133,35.887,43.265
34.957,33.658,36.257,36.105,35.878,43.228
34.952,33.644,36.242,36.073,35.868,43.185
34.945,33.631,36.224000000000004,36.038000000000004,35.858000000000004,43.133
34.937,33.618,36.205,36.0,35.847,43.067
34.927,33.605,36.183,35.96,35.836,42.983999999999995
34.917,33.592,36.159,35.916,35.824,42.881
34.906,33.578,36.135,35.87,35.812,42.757
34.895,33.563,36.109,35.823,35.799,42.611000000000004
34.885,33.547,36.082,35.777,35.786,42.446000000000005
34.875,33.531,36.055,35.731,35.773,42.263999999999996
34.864000000000004,33.514,36.025999999999996,35.688,35.76,42.068999999999996
34.853,33.498000000000005,35.997,35.646,35.747,41.86600000000001
34.843,33.484,35.966,35.608000000000004,35.735,41.661
34.833,33.471,35.935,35.573,35.723,41.458999999999996
34.824,33.46,35.903,35.542,35.711999999999996,41.265
34.818000000000005,33.45,35.871,35.515,35.702,41.08
34.813,33.442,35.839,35.492,35.692,40.905
34.81,33.436,35.808,35.473,35.684,40.735
34.808,33.43,35.775999999999996,35.458,35.677,40.564
34.806,33.424,35.745,35.445,35.671,40.385999999999996
34.805,33.419000000000004,35.714,35.435,35.665,40.192
34.804,33.413000000000004,35.683,35.427,35.661,39.975
34.803000000000004,33.407,35.652,35.42,35.657,39.727
34.804,33.4,35.622,35.414,35.654,39.44
34.805,33.391,35.592,35.408,35.650999999999996,39.107
34.806,33.38,35.562,35.403,35.649,38.723
34.806,33.365,35.532,35.399,35.647,38.285
34.805,33.344,35.501999999999995,35.396,35.647,37.788000000000004
34.801,33.319,35.471,35.393,35.648,37.231
34.796,33.288000000000004,35.44,35.391999999999996,35.65,36.614000000000004
34.789,33.251,35.409,35.391999999999996,35.653,35.94
34.781,33.209,35.378,35.393,35.657,35.213
34.774,33.161,35.348,35.395,35.662,34.439
34.766999999999996,33.111,35.318000000000005,35.398,35.666,33.626999999999995
34.760999999999996,33.058,35.288000000000004,35.402,35.67,32.789
34.756,33.007,35.258,35.406,35.673,31.934
34.751,32.959,35.228,35.411,35.674,31.078000000000003
34.746,32.916,35.198,35.415,35.673,30.233
34.741,32.879,35.167,35.419000000000004,35.67,29.413
34.736,32.848,35.135999999999996,35.42,35.665,28.631
34.732,32.821999999999996,35.104,35.419000000000004,35.657,27.9
34.729,32.801,35.071999999999996,35.416,35.646,27.230999999999998
34.726,32.784,35.041,35.409,35.633,26.631
34.724000000000004,32.772,35.010999999999996,35.399,35.618,26.109
34.723,32.762,34.982,35.387,35.601,25.668000000000003
34.724000000000004,32.754,34.955999999999996,35.372,35.583,25.311
34.729,32.747,34.931,35.355,35.566,25.037
34.736999999999995,32.741,34.908,35.336,35.548,24.845
34.75,32.736999999999995,34.888000000000005,35.316,35.532,24.730999999999998
34.769,32.734,34.869,35.295,35.516,24.686999999999998
34.794000000000004,32.732,34.852,35.273,35.501,24.706
34.826,32.73,34.836999999999996,35.25,35.489000000000004,24.781
34.867,32.728,34.821,35.227,35.478,24.901
34.916,32.726,34.806,35.204,35.47,25.058000000000003
34.975,32.724000000000004,34.791,35.181999999999995,35.464,25.241
35.043,32.722,34.775999999999996,35.159,35.461,25.443
35.121,32.718,34.759,35.137,35.459,25.655
35.209,32.713,34.742,35.115,35.459,25.87
35.304,32.707,34.724000000000004,35.094,35.46,26.081999999999997
35.406,32.699,34.704,35.074,35.461999999999996,26.287
35.513000000000005,32.69,34.684,35.054,35.464,26.482
35.625,32.68,34.664,35.034,35.466,26.663
35.739000000000004,32.67,34.644,35.014,35.468,26.829
35.854,32.658,34.625,34.994,35.47,26.979
35.97,32.646,34.606,34.973,35.473,27.115
36.084,32.632,34.589,34.951,35.476,27.237
36.196,32.619,34.571,34.928000000000004,35.481,27.348000000000003
36.303000000000004,32.606,34.554,34.903,35.488,27.448
36.405,32.594,34.538000000000004,34.876999999999995,35.499,27.54
36.5,32.584,34.523,34.85,35.513000000000005,27.627
36.586,32.576,34.509,34.823,35.533,27.71
36.663000000000004,32.57,34.496,34.795,35.558,27.791
36.731,32.564,34.485,34.766999999999996,35.59,27.872
36.788000000000004,32.56,34.475,34.74,35.628,27.953000000000003
36.835,32.556999999999995,34.465,34.714,35.675,28.037
36.87,32.554,34.457,34.688,35.729,28.122
36.895,32.552,34.45,34.664,35.79,28.209
36.909,32.551,34.443000000000005,34.64,35.858000000000004,28.299
36.915,32.549,34.437,34.617,35.931999999999995,28.391
36.912,32.547,34.431,34.593,36.013000000000005,28.485
36.902,32.545,34.426,34.57,36.098,28.58
36.887,32.541,34.422,34.547,36.186,28.677
36.867,32.538000000000004,34.42,34.524,36.275,28.775
36.843,32.534,34.419000000000004,34.501999999999995,36.365,28.874000000000002
36.816,32.53,34.422,34.481,36.453,28.975
36.787,32.525999999999996,34.429,34.461,36.538000000000004,29.078000000000003
36.756,32.523,34.441,34.443000000000005,36.619,29.182
36.723,32.525,34.459,34.426,36.694,29.288
36.689,32.532,34.484,34.41,36.762,29.395
36.655,32.548,34.516999999999996,34.396,36.824,29.504
36.619,32.573,34.558,34.382,36.878,29.613000000000003
36.584,32.609,34.609,34.37,36.926,29.723000000000003
36.55,32.658,34.669000000000004,34.36,36.966,29.834
36.516,32.721,34.74,34.35,36.999,29.944000000000003
36.483000000000004,32.8,34.821,34.341,37.025,30.054000000000002
36.449,32.895,34.913000000000004,34.332,37.045,30.163
36.415,33.007,35.014,34.323,37.059,30.27
36.38,33.135,35.124,34.313,37.066,30.375
36.345,33.279,35.242,34.302,37.068000000000005,30.476
36.31,33.439,35.368,34.291,37.064,30.575
36.275,33.611999999999995,35.5,34.279,37.056,30.67
36.241,33.797,35.638000000000005,34.266999999999996,37.044000000000004,30.761999999999997
36.207,33.99,35.781,34.255,37.029,30.851
36.174,34.188,35.928000000000004,34.244,37.010999999999996,30.938000000000002
36.141,34.387,36.078,34.234,36.992,31.023000000000003
36.109,34.584,36.228,34.225,36.972,31.105999999999998
36.076,34.775,36.378,34.218,36.951,31.188000000000002
36.042,34.955999999999996,36.525,34.213,36.93,31.268
36.009,35.125,36.668,34.209,36.91,31.348000000000003
35.976,35.281,36.806,34.207,36.89,31.427
35.944,35.42,36.935,34.205,36.871,31.506
35.914,35.541,37.056,34.205,36.852,31.583000000000002
35.887,35.644,37.166,34.205999999999996,36.835,31.659000000000002
35.861,35.728,37.266,34.208,36.818000000000005,31.733
35.836999999999996,35.794000000000004,37.353,34.211,36.802,31.807
35.815,35.843,37.43,34.214,36.787,31.879
35.794000000000004,35.876,37.495,34.217,36.774,31.949
35.774,35.895,37.55,34.22,36.763000000000005,32.019
35.757,35.900999999999996,37.593,34.223,36.753,32.09
35.741,35.897,37.626999999999995,34.226,36.745,32.16
35.727,35.884,37.650999999999996,34.229,36.736999999999995,32.231
35.715,35.866,37.668,34.232,36.73,32.302
35.705,35.844,37.676,34.234,36.723,32.372
35.696999999999996,35.819,37.677,34.236999999999995,36.717,32.441
35.691,35.791,37.672,34.24,36.711,32.508
35.686,35.76,37.661,34.242,36.705999999999996,32.573
35.685,35.726,37.647,34.245,36.7,32.637
35.686,35.688,37.628,34.248000000000005,36.694,32.698
35.691,35.647,37.607,34.25,36.688,32.757
35.698,35.602,37.582,34.251,36.681,32.814
35.708,35.553000000000004,37.555,34.251999999999995,36.674,32.869
35.721,35.5,37.525999999999996,34.251999999999995,36.667,32.922
35.736,35.443000000000005,37.494,34.251999999999995,36.66,32.974000000000004
35.753,35.381,37.46,34.25,36.654,33.024
35.771,35.316,37.424,34.248000000000005,36.649,33.073
35.791,35.248000000000005,37.385999999999996,34.246,36.644,33.121
35.812,35.178000000000004,37.347,34.244,36.64,33.169000000000004
35.833,35.107,37.306,34.241,36.635999999999996,33.216
35.854,35.033,37.264,34.239000000000004,36.633,33.263000000000005
35.874,34.958,37.223,34.236,36.63,33.31
35.891999999999996,34.882,37.18,34.234,36.626999999999995,33.358000000000004
35.908,34.806999999999995,37.138000000000005,34.232,36.626,33.407
35.922,34.732,37.094,34.231,36.625,33.457
35.935,34.658,37.049,34.23,36.625,33.508
35.945,34.586,37.003,34.23,36.625,33.562
35.955,34.515,36.955,34.23,36.626,33.616
35.964,34.446,36.905,34.231,36.626999999999995,33.673
35.971,34.379,36.853,34.233000000000004,36.629,33.73
35.977,34.313,36.8,34.236,36.632,33.789
35.98,34.248000000000005,36.746,34.24,36.635,33.847
35.98,34.184,36.691,34.246,36.64,33.905
35.976,34.119,36.635999999999996,34.253,36.647,33.963
35.969,34.053000000000004,36.582,34.260999999999996,36.655,34.02
35.959,33.986999999999995,36.529,34.272,36.665,34.077
35.946,33.921,36.479,34.285,36.676,34.133
35.93,33.855,36.43,34.302,36.687,34.189
35.913000000000004,33.789,36.384,34.323,36.699,34.246
35.895,33.724000000000004,36.341,34.349000000000004,36.711,34.305
35.876,33.661,36.301,34.381,36.721,34.368
35.856,33.601,36.263000000000005,34.421,36.729,34.435
35.834,33.546,36.227,34.47,36.736,34.509
35.812,33.495,36.194,34.529,36.741,34.592
35.789,33.451,36.163000000000004,34.598,36.744,34.685
35.766999999999996,33.412,36.135,34.679,36.745,34.791
35.747,33.379,36.109,34.77,36.744,34.909
35.729,33.353,36.086999999999996,34.873000000000005,36.741,35.042
35.713,33.335,36.068000000000005,34.986,36.736999999999995,35.189
35.698,33.324,36.054,35.107,36.731,35.349000000000004
35.683,33.32,36.044000000000004,35.236,36.723,35.523
35.668,33.321999999999996,36.037,35.368,36.714,35.707
35.65,33.33,36.035,35.504,36.704,35.902
35.632,33.343,36.037,35.639,36.693000000000005,36.103
35.611999999999995,33.359,36.042,35.773,36.681,36.308
35.592,33.38,36.05,35.903,36.668,36.514
35.57,33.404,36.061,36.028,36.653,36.718
35.549,33.431,36.074,36.145,36.637,36.918
35.527,33.46,36.086999999999996,36.253,36.621,37.11
35.504,33.491,36.101,36.352,36.604,37.294000000000004
35.48,33.524,36.114000000000004,36.442,36.586999999999996,37.467
35.455,33.559,36.126,36.52,36.57,37.628
35.431,33.596,36.138000000000005,36.589,36.552,37.775999999999996
35.408,33.634,36.149,36.646,36.534,37.908
35.385,33.672,36.159,36.694,36.514,38.025
35.364000000000004,33.71,36.168,36.731,36.493,38.125
35.343,33.747,36.176,36.759,36.471,38.209
35.323,33.783,36.183,36.779,36.446,38.275999999999996
35.302,33.819,36.187,36.792,36.421,38.328
35.282,33.855,36.189,36.799,36.394,38.366
35.260999999999996,33.891,36.19,36.803000000000004,36.365,38.39
35.241,33.926,36.188,36.803000000000004,36.336,38.402
35.221,33.961999999999996,36.185,36.801,36.306999999999995,38.403
35.201,33.997,36.181,36.796,36.279,38.393
35.181999999999995,34.033,36.174,36.789,36.251,38.373000000000005
35.164,34.07,36.167,36.782,36.225,38.345
35.146,34.107,36.158,36.774,36.2,38.311
35.13,34.146,36.148,36.765,36.177,38.273
35.115,34.186,36.137,36.755,36.155,38.232
35.1,34.231,36.123000000000005,36.745,36.133,38.189
35.086999999999996,34.281,36.107,36.735,36.11,38.146
35.074,34.34,36.088,36.725,36.088,38.103
35.062,34.409,36.069,36.715,36.064,38.061
35.051,34.489000000000004,36.048,36.704,36.04,38.021
35.039,34.582,36.025999999999996,36.694,36.015,37.983000000000004
35.028,34.687,36.003,36.684,35.99,37.946
35.016999999999996,34.804,35.98,36.675,35.965,37.911
35.006,34.933,35.955999999999996,36.667,35.939,37.878
34.996,35.073,35.931999999999995,36.661,35.914,37.846
34.986999999999995,35.223,35.908,36.657,35.89,37.817
34.979,35.38,35.883,36.654,35.867,37.789
34.971,35.542,35.857,36.652,35.847,37.762
34.965,35.704,35.830999999999996,36.650999999999996,35.828,37.736999999999995
34.959,35.861999999999995,35.803000000000004,36.65,35.81,37.713
34.953,36.014,35.773,36.649,35.794000000000004,37.691
34.946999999999996,36.155,35.742,36.648,35.78,37.67
34.942,36.283,35.709,36.645,35.766999999999996,37.65
34.937,36.394,35.675,36.64,35.755,37.631
34.931999999999995,36.485,35.639,36.634,35.744,37.611999999999995
34.928000000000004,36.553000000000004,35.603,36.626,35.734,37.592
34.923,36.595,35.567,36.617,35.725,37.571999999999996
34.92,36.61,35.53,36.607,35.716,37.55
34.916,36.599000000000004,35.493,36.596,35.707,37.527
34.913000000000004,36.562,35.455,36.584,35.698,37.501
34.91,36.501,35.416,36.573,35.69,37.472
34.908,36.417,35.375,36.562,35.681,37.442
34.907,36.314,35.334,36.552,35.673,37.409
34.907,36.196999999999996,35.292,36.542,35.665,37.374
34.907,36.069,35.249,36.533,35.658,37.339
34.908,35.935,35.207,36.524,35.652,37.305
34.91,35.802,35.166,36.516,35.647,37.271
34.912,35.673,35.126,36.509,35.644,37.239000000000004
34.913000000000004,35.552,35.088,36.501999999999995,35.643,37.211
34.913000000000004,35.441,35.052,36.495,35.644,37.185
34.913000000000004,35.343,35.018,36.488,35.646,37.165
34.911,35.258,34.986,36.481,35.649,37.149
34.908,35.187,34.957,36.474000000000004,35.653,37.138000000000005
34.905,35.128,34.929,36.467,35.657,37.133
34.9,35.08,34.903,36.46,35.661,37.132
34.894,35.041,34.876,36.454,35.664,37.137
34.887,35.008,34.851,36.449,35.667,37.147
34.879,34.979,34.826,36.446,35.669000000000004,37.163000000000004
34.871,34.952,34.801,36.444,35.67,37.184
34.861999999999995,34.926,34.777,36.445,35.67,37.21
34.854,34.898,34.754,36.446,35.669000000000004,37.24
34.845,34.868,34.73,36.45,35.666,37.273
34.836999999999996,34.833,34.705999999999996,36.454,35.661,37.309
34.830999999999996,34.792,34.681999999999995,36.459,35.657,37.346
34.828,34.745,34.658,36.465,35.652,37.384
34.828,34.692,34.633,36.471,35.646,37.422
34.832,34.632,34.608000000000004,36.477,35.641,37.459
34.841,34.567,34.583,36.483000000000004,35.635999999999996,37.495
34.855,34.496,34.558,36.49,35.63,37.529
34.875,34.423,34.533,36.498000000000005,35.624,37.559
34.9,34.347,34.509,36.506,35.618,37.586
34.931999999999995,34.271,34.485,36.515,35.611999999999995,37.61
34.971,34.195,34.461999999999996,36.525,35.606,37.629
35.016,34.12,34.44,36.535,35.6,37.645
35.069,34.046,34.419000000000004,36.545,35.593,37.658
35.13,33.973,34.399,36.555,35.586,37.668
35.199,33.900999999999996,34.381,36.564,35.577,37.676
35.277,33.829,34.365,36.571,35.566,37.681
35.361999999999995,33.756,34.349000000000004,36.576,35.554,37.685
35.455,33.683,34.335,36.578,35.541,37.687
35.554,33.609,34.321,36.576,35.525999999999996,37.686
35.657,33.534,34.309,36.569,35.510999999999996,37.681999999999995
35.764,33.455999999999996,34.297,36.559,35.497,37.676
35.872,33.376999999999995,34.286,36.544000000000004,35.483000000000004,37.668
35.982,33.296,34.275,36.525,35.47,37.657
36.091,33.215,34.263000000000005,36.501999999999995,35.459,37.643
36.196999999999996,33.134,34.25,36.476,35.449,37.628
36.301,33.056,34.236,36.446999999999996,35.44,37.61
36.399,32.982,34.221,36.414,35.431999999999995,37.592
36.491,32.915,34.204,36.376999999999995,35.425,37.571
36.575,32.856,34.186,36.336999999999996,35.417,37.55
36.65,32.809,34.167,36.293,35.409,37.527
36.717,32.777,34.146,36.247,35.399,37.503
36.775,32.76,34.125,36.198,35.389,37.479
36.823,32.760999999999996,34.102,36.147,35.378,37.454
36.864000000000004,32.781,34.08,36.095,35.366,37.428000000000004
36.895,32.819,34.058,36.042,35.355,37.402
36.918,32.875,34.039,35.989000000000004,35.345,37.375
36.931999999999995,32.95,34.022,35.936,35.336,37.348
36.937,33.042,34.009,35.885999999999996,35.33,37.321
36.933,33.149,34.0,35.836999999999996,35.327,37.293
36.921,33.269,33.995,35.791,35.328,37.266999999999996
36.903,33.4,33.996,35.749,35.334,37.242
36.879,33.539,34.003,35.71,35.343,37.218
36.851,33.683,34.016999999999996,35.675,35.357,37.196
36.821999999999996,33.830999999999996,34.04,35.643,35.375,37.174
36.792,33.978,34.071999999999996,35.616,35.398,37.153
36.760999999999996,34.123000000000005,34.114000000000004,35.593,35.426,37.133
36.73,34.263000000000005,34.166,35.574,35.46,37.114000000000004
36.698,34.394,34.23,35.558,35.499,37.095
36.666,34.515,34.306999999999995,35.546,35.544000000000004,37.076
36.633,34.625,34.394,35.537,35.595,37.058
36.6,34.723,34.494,35.53,35.652,37.041
36.568000000000005,34.809,34.606,35.524,35.715,37.023
36.536,34.884,34.729,35.518,35.782,37.005
36.504,34.946,34.861999999999995,35.512,35.854,36.986
36.473,34.996,35.005,35.505,35.928000000000004,36.965
36.442,35.035,35.155,35.497,36.004,36.944
36.411,35.062,35.312,35.488,36.080999999999996,36.92
36.379,35.08,35.472,35.476,36.157,36.896
36.346,35.088,35.635,35.463,36.231,36.87
36.314,35.086999999999996,35.798,35.448,36.301,36.843
36.281,35.078,35.959,35.431,36.366,36.815
36.249,35.062,36.117,35.412,36.426,36.787
36.217,35.039,36.269,35.391999999999996,36.479,36.76
36.185,35.010999999999996,36.413000000000004,35.369,36.525,36.734
36.153,34.979,36.55,35.345,36.563,36.709
36.119,34.945,36.677,35.321,36.594,36.687
36.085,34.907,36.794000000000004,35.296,36.618,36.668
36.048,34.866,36.9,35.27,36.634,36.653
36.010999999999996,34.824,36.995,35.244,36.643,36.64
35.972,34.779,37.079,35.217,36.645,36.63
35.935,34.733000000000004,37.15,35.19,36.641999999999996,36.621
35.899,34.686,37.21,35.163000000000004,36.634,36.613
35.866,34.638000000000005,37.257,35.135999999999996,36.621,36.606
35.836,34.588,37.293,35.108000000000004,36.606,36.597
35.809,34.537,37.318000000000005,35.08,36.588,36.588
35.784,34.484,37.336,35.052,36.568000000000005,36.579
35.763000000000005,34.43,37.345,35.023,36.546,36.568000000000005
35.745,34.376,37.347,34.994,36.525,36.555
35.731,34.323,37.343,34.965,36.503,36.542
35.721,34.269,37.333,34.936,36.483000000000004,36.528
35.716,34.216,37.319,34.908,36.463,36.512
35.715,34.162,37.299,34.879,36.443000000000005,36.496
35.717,34.108000000000004,37.275999999999996,34.852,36.424,36.478
35.722,34.054,37.248000000000005,34.824,36.406,36.461
35.728,34.0,37.216,34.797,36.388000000000005,36.443000000000005
35.735,33.945,37.181,34.77,36.369,36.427
35.742,33.889,37.145,34.745,36.35,36.41
35.75,33.832,37.108000000000004,34.72,36.330999999999996,36.395
35.759,33.774,37.071,34.696,36.31,36.38
35.77,33.717,37.034,34.672,36.288000000000004,36.365
35.783,33.662,36.998000000000005,34.648,36.264,36.351
35.798,33.609,36.963,34.624,36.239000000000004,36.336999999999996
35.815,33.56,36.928000000000004,34.6,36.213,36.321999999999996
35.833,33.515,36.894,34.577,36.186,36.306
35.851,33.476,36.86,34.554,36.159,36.288000000000004
35.87,33.443000000000005,36.825,34.531,36.133,36.269
35.889,33.419000000000004,36.789,34.509,36.108000000000004,36.247
35.908,33.404,36.751999999999995,34.489000000000004,36.084,36.224000000000004
35.925,33.398,36.714,34.47,36.063,36.198
35.942,33.402,36.674,34.451,36.043,36.169000000000004
35.957,33.415,36.631,34.433,36.024,36.139
35.969,33.437,36.586999999999996,34.415,36.007,36.107
35.98,33.465,36.541,34.397,35.99,36.074
35.989000000000004,33.498000000000005,36.493,34.378,35.974000000000004,36.04
35.995,33.536,36.445,34.359,35.959,36.005
35.999,33.576,36.396,34.34,35.944,35.971
36.0,33.618,36.346,34.321,35.929,35.937
35.998000000000005,33.659,36.295,34.3,35.915,35.903
35.993,33.702,36.244,34.277,35.902,35.871
35.986,33.745,36.194,34.253,35.89,35.84
35.976,33.791,36.144,34.226,35.879,35.811
35.966,33.84,36.097,34.198,35.868,35.786
35.954,33.894,36.053000000000004,34.167,35.859,35.765
35.941,33.952,36.012,34.135,35.852,35.749
35.927,34.016,35.975,34.102,35.846,35.74
35.913000000000004,34.086999999999996,35.942,34.067,35.843,35.738
35.897,34.168,35.913000000000004,34.033,35.841,35.744
35.881,34.258,35.887,33.999,35.841,35.759
35.864000000000004,34.357,35.865,33.967,35.843,35.784
35.846,34.466,35.846,33.938,35.847,35.819
35.827,34.583,35.830999999999996,33.912,35.851,35.865
35.808,34.708,35.82,33.891,35.856,35.923
35.789,34.838,35.812,33.874,35.861,35.994
35.77,34.971,35.806999999999995,33.864000000000004,35.865,36.078
35.751,35.106,35.804,33.859,35.87,36.177
35.732,35.239000000000004,35.804,33.861,35.873000000000005,36.29
35.714,35.367,35.806999999999995,33.869,35.876,36.418
35.694,35.486999999999995,35.813,33.884,35.878,36.56
35.674,35.596,35.821,33.907,35.879,36.715
35.652,35.691,35.832,33.938,35.88,36.88
35.63,35.766999999999996,35.845,33.978,35.881,37.055
35.606,35.825,35.861,34.028,35.881,37.235
35.580999999999996,35.864000000000004,35.878,34.088,35.881,37.419000000000004
35.555,35.884,35.895,34.159,35.882,37.604
35.529,35.887,35.913000000000004,34.239000000000004,35.883,37.788000000000004
35.501,35.875,35.93,34.329,35.883,37.968
35.474000000000004,35.852,35.946,34.429,35.883,38.141999999999996
35.446,35.823,35.961,34.538000000000004,35.883,38.309
35.419000000000004,35.789,35.974000000000004,34.653,35.882,38.468
35.394,35.755,35.986,34.773,35.88,38.617
35.37,35.724000000000004,35.994,34.897,35.878,38.755
35.348,35.699,36.0,35.022,35.873000000000005,38.882
35.328,35.681,36.003,35.145,35.868,38.997
35.31,35.674,36.001,35.265,35.861999999999995,39.1
35.293,35.68,35.997,35.379,35.855,39.19
35.275999999999996,35.698,35.99,35.486,35.848,39.268
35.26,35.729,35.981,35.584,35.841,39.334
35.244,35.772,35.97,35.673,35.834,39.388000000000005
35.227,35.825,35.957,35.751,35.826,39.43
35.209,35.887,35.944,35.818000000000005,35.818000000000005,39.46
35.191,35.954,35.93,35.874,35.809,39.481
35.173,36.025999999999996,35.916,35.918,35.799,39.491
35.154,36.099000000000004,35.9,35.951,35.788000000000004,39.492
35.135999999999996,36.168,35.885,35.973,35.775999999999996,39.485
35.119,36.23,35.869,35.986,35.762,39.468
35.103,36.282,35.854,35.991,35.748000000000005,39.444
35.088,36.321999999999996,35.836999999999996,35.989000000000004,35.733000000000004,39.413000000000004
35.075,36.347,35.82,35.98,35.718,39.376
35.065,36.358000000000004,35.801,35.967,35.701,39.333
35.056,36.353,35.781,35.952,35.685,39.287
35.05,36.330999999999996,35.758,35.934,35.669000000000004,39.238
35.043,36.294000000000004,35.733000000000004,35.914,35.653,39.19
35.037,36.243,35.705,35.893,35.637,39.141999999999996
35.03,36.181,35.674,35.873000000000005,35.622,39.097
35.023,36.113,35.641,35.853,35.608000000000004,39.055
35.014,36.044000000000004,35.607,35.836,35.596,39.016
35.005,35.98,35.571,35.823,35.584,38.982
34.996,35.927,35.536,35.814,35.574,38.95
34.986,35.89,35.5,35.808,35.565,38.921
34.977,35.874,35.466,35.806,35.556,38.894
34.968,35.882,35.431999999999995,35.805,35.548,38.869
34.96,35.918,35.400999999999996,35.804,35.539,38.843
34.951,35.983000000000004,35.371,35.802,35.529,38.816
34.943000000000005,36.076,35.343,35.796,35.519,38.786
34.937,36.194,35.316,35.787,35.508,38.754
34.931999999999995,36.335,35.289,35.773,35.495,38.72
34.928000000000004,36.492,35.262,35.755,35.482,38.684
34.925,36.661,35.235,35.732,35.468,38.646
34.923,36.834,35.207,35.708,35.453,38.606
34.921,37.007,35.179,35.681,35.437,38.565
34.917,37.171,35.15,35.653,35.42,38.521
34.913000000000004,37.321999999999996,35.119,35.625,35.402,38.475
34.908,37.453,35.086,35.597,35.384,38.427
34.902,37.559,35.052,35.57,35.365,38.376999999999995
34.896,37.638000000000005,35.016,35.542,35.345,38.325
34.888000000000005,37.688,34.979,35.516,35.325,38.273
34.881,37.708,34.942,35.489000000000004,35.306,38.22
34.872,37.7,34.907,35.463,35.288000000000004,38.168
34.863,37.663000000000004,34.873000000000005,35.437,35.273,38.117
34.853,37.599000000000004,34.841,35.411,35.26,38.068000000000005
34.843,37.51,34.812,35.385,35.248000000000005,38.021
34.835,37.396,34.785,35.358000000000004,35.239000000000004,37.978
34.827,37.263000000000005,34.76,35.330999999999996,35.23,37.938
34.821,37.114000000000004,34.738,35.303000000000004,35.222,37.903
34.817,36.952,34.717,35.275,35.215,37.874
34.815,36.781,34.696999999999996,35.245,35.207,37.85
34.813,36.604,34.679,35.215,35.2,37.832
34.811,36.424,34.66,35.185,35.192,37.82
34.809,36.245,34.641999999999996,35.154,35.183,37.814
34.805,36.07,34.623000000000005,35.124,35.173,37.815
34.801,35.903,34.604,35.094,35.162,37.821
34.797,35.747,34.585,35.067,35.150999999999996,37.833
34.791,35.604,34.565,35.041,35.14,37.851
34.785,35.475,34.546,35.019,35.129,37.872
34.779,35.363,34.528,34.999,35.119,37.897
34.771,35.268,34.510999999999996,34.982,35.109,37.924
34.764,35.191,34.494,34.968,35.101,37.953
34.757,35.133,34.478,34.958,35.093,37.982
34.751,35.094,34.463,34.951,35.088,38.010999999999996
34.745,35.075,34.448,34.946999999999996,35.085,38.04
34.741,35.075,34.435,34.946,35.085,38.067
34.74,35.093,34.422,34.948,35.086999999999996,38.093
34.74,35.132,34.41,34.952,35.092,38.116
34.743,35.189,34.399,34.957,35.098,38.135999999999996
34.749,35.266,34.389,34.965,35.105,38.153
34.757,35.36,34.38,34.973,35.114000000000004,38.166
34.768,35.47,34.371,34.983000000000004,35.122,38.176
34.784,35.595,34.364000000000004,34.993,35.131,38.181999999999995
34.806,35.733000000000004,34.357,35.004,35.138000000000005,38.185
34.835,35.882,34.352,35.014,35.144,38.185
34.872,36.039,34.347,35.024,35.148,38.181999999999995
34.919000000000004,36.203,34.341,35.034,35.15,38.177
34.975,36.37,34.336,35.043,35.149,38.168
35.042,36.537,34.329,35.051,35.146,38.157
35.118,36.701,34.321,35.058,35.14,38.144
35.204,36.859,34.312,35.065,35.133,38.128
35.299,37.006,34.302,35.071999999999996,35.123000000000005,38.109
35.404,37.143,34.29,35.079,35.113,38.088
35.516,37.266,34.278,35.085,35.102,38.065
35.634,37.375,34.266,35.09,35.09,38.04
35.756,37.469,34.253,35.094,35.079,38.014
35.879,37.546,34.24,35.096,35.068000000000005,37.986999999999995
36.001,37.609,34.226,35.096,35.058,37.959
36.121,37.656,34.214,35.092,35.048,37.93
36.235,37.688,34.201,35.085,35.04,37.902
36.342,37.707,34.19,35.074,35.033,37.873000000000005
36.443000000000005,37.715,34.179,35.061,35.025999999999996,37.843
36.535,37.711999999999996,34.169000000000004,35.045,35.021,37.814
36.618,37.7,34.16,35.025999999999996,35.016,37.785
36.691,37.68,34.152,35.006,35.012,37.757
36.755,37.654,34.144,34.984,35.008,37.729
36.806999999999995,37.622,34.137,34.961,35.005,37.702
36.85,37.585,34.131,34.936,35.001999999999995,37.675
36.881,37.545,34.126,34.91,34.999,37.646
36.903,37.5,34.122,34.885,34.997,37.617
36.915,37.453,34.122,34.859,34.994,37.588
36.918,37.403,34.125,34.833,34.992,37.558
36.914,37.351,34.135,34.809,34.99,37.527
36.903,37.297,34.153,34.785,34.988,37.495
36.887,37.243,34.18,34.763000000000005,34.986,37.461999999999996
36.865,37.189,34.218,34.742,34.984,37.428000000000004
36.84,37.137,34.268,34.724000000000004,34.982,37.393
36.812,37.084,34.332,34.708,34.98,37.357
36.783,37.032,34.408,34.694,34.979,37.319
36.753,36.981,34.497,34.681999999999995,34.98,37.28
36.723,36.93,34.599000000000004,34.672,34.983000000000004,37.24
36.693000000000005,36.881,34.711999999999996,34.663000000000004,34.99,37.199
36.664,36.834,34.836999999999996,34.656,35.001999999999995,37.157
36.635999999999996,36.788000000000004,34.971,34.650999999999996,35.019,37.114000000000004
36.609,36.745,35.113,34.646,35.043,37.07
36.580999999999996,36.704,35.262,34.641,35.074,37.025999999999996
36.553000000000004,36.664,35.413000000000004,34.637,35.113,36.981
36.524,36.626,35.566,34.633,35.159,36.935
36.494,36.59,35.717,34.628,35.211999999999996,36.89
36.463,36.556,35.864000000000004,34.624,35.273,36.845
36.431999999999995,36.524,36.005,34.619,35.341,36.801
36.402,36.495,36.14,34.615,35.415,36.758
36.371,36.467,36.268,34.61,35.493,36.717
36.339,36.443000000000005,36.388000000000005,34.606,35.574,36.677
36.306,36.422,36.499,34.601,35.656,36.638000000000005
36.272,36.406,36.601,34.597,35.736999999999995,36.6
36.236,36.394,36.693000000000005,34.593,35.816,36.564
36.199,36.387,36.775,34.59,35.893,36.528
36.16,36.383,36.847,34.588,35.966,36.492
36.12,36.382,36.91,34.586,36.033,36.457
36.079,36.383,36.964,34.585,36.094,36.423
36.037,36.385,37.009,34.585,36.149,36.389
35.994,36.388000000000005,37.047,34.586999999999996,36.196999999999996,36.357
35.951,36.395,37.077,34.589,36.236999999999995,36.326
35.909,36.408,37.1,34.592,36.271,36.297
35.868,36.427,37.115,34.596,36.298,36.271
35.829,36.455,37.123000000000005,34.601,36.318000000000005,36.246
35.793,36.492,37.123000000000005,34.607,36.333,36.224000000000004
35.76,36.54,37.117,34.613,36.343,36.205
35.731,36.599000000000004,37.103,34.619,36.347,36.189
35.705,36.669000000000004,37.084,34.626,36.347,36.174
35.683,36.748000000000005,37.059,34.633,36.343,36.162
35.666,36.835,37.029,34.64,36.335,36.149
35.652,36.926,36.996,34.649,36.321999999999996,36.135
35.643,37.016999999999996,36.961,34.658,36.306,36.118
35.637,37.105,36.924,34.667,36.287,36.1
35.634,37.187,36.888000000000005,34.678000000000004,36.265,36.079
35.633,37.259,36.851,34.689,36.241,36.056
35.634,37.318000000000005,36.815,34.701,36.216,36.031
35.638000000000005,37.363,36.778,34.711999999999996,36.19,36.006
35.643,37.391,36.741,34.723,36.164,35.981
35.65,37.399,36.703,34.733000000000004,36.138000000000005,35.959
35.66,37.388000000000005,36.663000000000004,34.742,36.111999999999995,35.938
35.672,37.357,36.622,34.749,36.086999999999996,35.919000000000004
35.686,37.308,36.580999999999996,34.755,36.062,35.902
35.702,37.245,36.54,34.758,36.038000000000004,35.888000000000005
35.72,37.169000000000004,36.498000000000005,34.759,36.016,35.875
35.739000000000004,37.083,36.457,34.756,35.994,35.861999999999995
35.76,36.991,36.415,34.751,35.974000000000004,35.848
35.781,36.896,36.373000000000005,34.743,35.954,35.832
35.801,36.8,36.329,34.732,35.935,35.813
35.821,36.705999999999996,36.284,34.718,35.915,35.792
35.839,36.616,36.236999999999995,34.703,35.895,35.768
35.856,36.531,36.189,34.686,35.874,35.74
35.87,36.454,36.141,34.667,35.853,35.711
35.882,36.385999999999996,36.093,34.645,35.832,35.679
35.891999999999996,36.327,36.045,34.622,35.81,35.645
35.898,36.277,35.999,34.597,35.787,35.61
35.903,36.236999999999995,35.955,34.57,35.764,35.575
35.905,36.205999999999996,35.914,34.544000000000004,35.741,35.54
35.906,36.185,35.876,34.516999999999996,35.718,35.506
35.906,36.171,35.84,34.492,35.696,35.472
35.905,36.165,35.808,34.467,35.673,35.441
35.904,36.166,35.78,34.444,35.652,35.411
35.902,36.172,35.754,34.422,35.631,35.383
35.899,36.184,35.732,34.402,35.611,35.359
35.894,36.201,35.713,34.385999999999996,35.592,35.336999999999996
35.885999999999996,36.221,35.696999999999996,34.373000000000005,35.575,35.318000000000005
35.875,36.243,35.683,34.366,35.559,35.301
35.86,36.266999999999996,35.673,34.364000000000004,35.544000000000004,35.285
35.841,36.291,35.665,34.368,35.532,35.271
35.82,36.314,35.66,34.379,35.521,35.258
35.797,36.336,35.659,34.397,35.510999999999996,35.246
35.772,36.358000000000004,35.661,34.422,35.503,35.234
35.746,36.378,35.668,34.455999999999996,35.496,35.223
35.719,36.396,35.678000000000004,34.497,35.491,35.211
35.69,36.411,35.692,34.546,35.486999999999995,35.201
35.661,36.422,35.71,34.602,35.485,35.19
35.632,36.429,35.731,34.664,35.484,35.181
35.604,36.431,35.753,34.731,35.485,35.174
35.576,36.428000000000004,35.775,34.803000000000004,35.488,35.169000000000004
35.549,36.42,35.795,34.878,35.492,35.169000000000004
35.523,36.406,35.812,34.955,35.497,35.174
35.498000000000005,36.385999999999996,35.826,35.031,35.504,35.186
35.473,36.36,35.835,35.107,35.513000000000005,35.207
35.448,36.327,35.84,35.18,35.522,35.238
35.424,36.289,35.843,35.25,35.532,35.281
35.399,36.244,35.844,35.316,35.543,35.338
35.375,36.193000000000005,35.844,35.379,35.554,35.409
35.352,36.135999999999996,35.844,35.437,35.566,35.496
35.33,36.074,35.844,35.49,35.577,35.599000000000004
35.309,36.008,35.845,35.538000000000004,35.586999999999996,35.717
35.29,35.938,35.846,35.582,35.596,35.851
35.272,35.867,35.848,35.623000000000005,35.603,36.0
35.256,35.795,35.85,35.66,35.608000000000004,36.161
35.241,35.724000000000004,35.853,35.695,35.611,36.332
35.226,35.654,35.854,35.727,35.61,36.512
35.213,35.586999999999996,35.855,35.757,35.605,36.696999999999996
35.2,35.523,35.853,35.785,35.598,36.885
35.186,35.463,35.848,35.81,35.589,37.071999999999996
35.172,35.408,35.84,35.834,35.578,37.256
35.156,35.359,35.829,35.854,35.565,37.433
35.139,35.315,35.814,35.87,35.552,37.601
35.12,35.278,35.795,35.883,35.538000000000004,37.759
35.099000000000004,35.248000000000005,35.771,35.891999999999996,35.524,37.903
35.078,35.225,35.744,35.896,35.510999999999996,38.035
35.056999999999995,35.208,35.715,35.894,35.498000000000005,38.152
35.036,35.199,35.684,35.885999999999996,35.486,38.255
35.016,35.195,35.652,35.872,35.474000000000004,38.343
34.996,35.196999999999996,35.62,35.853,35.464,38.416
34.977,35.203,35.586999999999996,35.827,35.454,38.474000000000004
34.959,35.211999999999996,35.555,35.796,35.446,38.519
34.942,35.224000000000004,35.522,35.758,35.438,38.552
34.927,35.238,35.489000000000004,35.715,35.431,38.574
34.912,35.253,35.455,35.664,35.425,38.586999999999996
34.899,35.266999999999996,35.421,35.605,35.418,38.591
34.887,35.282,35.385999999999996,35.538000000000004,35.411,38.588
34.875,35.297,35.351,35.461999999999996,35.403,38.58
34.863,35.313,35.316,35.378,35.394,38.567
34.852,35.330999999999996,35.28,35.289,35.384,38.551
34.842,35.349000000000004,35.244,35.195,35.372,38.531
34.832,35.37,35.208,35.099000000000004,35.36,38.51
34.824,35.391999999999996,35.172,35.005,35.348,38.486
34.816,35.415,35.135,34.914,35.335,38.461999999999996
34.811,35.439,35.097,34.828,35.321999999999996,38.437
34.806999999999995,35.463,35.061,34.751,35.308,38.41
34.804,35.486,35.025,34.683,35.295,38.383
34.801,35.509,34.991,34.626,35.28,38.354
34.798,35.53,34.958,34.58,35.265,38.323
34.795,35.549,34.925,34.544000000000004,35.25,38.291
34.79,35.566,34.894,34.516999999999996,35.234,38.257
34.786,35.579,34.864000000000004,34.498000000000005,35.218,38.222
34.782,35.59,34.835,34.485,35.202,38.185
34.778,35.599000000000004,34.806999999999995,34.475,35.186,38.148
34.774,35.607,34.779,34.466,35.17,38.109
34.771,35.611999999999995,34.753,34.457,35.155,38.07
34.766,35.618,34.726,34.446,35.141,38.031
34.76,35.625,34.7,34.431999999999995,35.126999999999995,37.992
34.751999999999995,35.634,34.674,34.415,35.114000000000004,37.954
34.741,35.648,34.649,34.394,35.102,37.917
34.73,35.667,34.624,34.372,35.091,37.879
34.718,35.694,34.6,34.349000000000004,35.08,37.841
34.708,35.729,34.579,34.329,35.069,37.803000000000004
34.699,35.773,34.559,34.312,35.058,37.765
34.691,35.828,34.541,34.3,35.048,37.727
34.685,35.893,34.524,34.296,35.037,37.691
34.68,35.968,34.509,34.301,35.025999999999996,37.655
34.675,36.054,34.496,34.316,35.015,37.619
34.671,36.150999999999996,34.485,34.345,35.005,37.584
34.668,36.258,34.474000000000004,34.387,34.996,37.547
34.665,36.374,34.464,34.444,34.986999999999995,37.510999999999996
34.663000000000004,36.497,34.454,34.513000000000005,34.98,37.473
34.661,36.626999999999995,34.444,34.596,34.975,37.435
34.658,36.762,34.433,34.69,34.971,37.396
34.654,36.9,34.42,34.792,34.968,37.359
34.649,37.039,34.407,34.900999999999996,34.967,37.323
34.641999999999996,37.179,34.393,35.013000000000005,34.967,37.289
34.635999999999996,37.316,34.38,35.126,34.967,37.258
34.629,37.449,34.368,35.236999999999995,34.968,37.231
34.623000000000005,37.576,34.358000000000004,35.343,34.968,37.21
34.617,37.696999999999996,34.35,35.444,34.967,37.193000000000005
34.61,37.809,34.343,35.537,34.966,37.181999999999995
34.604,37.912,34.338,35.624,34.965,37.177
34.597,38.005,34.334,35.703,34.964,37.178000000000004
34.59,38.086999999999996,34.332,35.775999999999996,34.963,37.184
34.583,38.157,34.330999999999996,35.842,34.961999999999996,37.194
34.578,38.215,34.330999999999996,35.903,34.961,37.208
34.576,38.260999999999996,34.333,35.961,34.961,37.223
34.579,38.294000000000004,34.334,36.016999999999996,34.961,37.24
34.586,38.314,34.336,36.07,34.961999999999996,37.258
34.598,38.323,34.338,36.123000000000005,34.964,37.275
34.617,38.321999999999996,34.339,36.174,34.967,37.292
34.641,38.311,34.34,36.224000000000004,34.971,37.306999999999995
34.672,38.292,34.34,36.272,34.975,37.321999999999996
34.711,38.263000000000005,34.34,36.316,34.979,37.336
34.759,38.228,34.339,36.356,34.983000000000004,37.349000000000004
34.817,38.186,34.338,36.389,34.986,37.36
34.885999999999996,38.139,34.338,36.415,34.988,37.37
34.964,38.089,34.338,36.434,34.986999999999995,37.378
35.051,38.037,34.338,36.444,34.984,37.383
35.146,37.983000000000004,34.339,36.446999999999996,34.98,37.385
35.247,37.93,34.34,36.442,34.975,37.383
35.353,37.876,34.342,36.429,34.968,37.376999999999995
35.463,37.823,34.343,36.41,34.961999999999996,37.367
35.576,37.771,34.345,36.383,34.957,37.353
35.69,37.719,34.347,36.351,34.952,37.335
35.803000000000004,37.667,34.349000000000004,36.315,34.949,37.312
35.914,37.615,34.351,36.274,34.946,37.286
36.022,37.563,34.352,36.23,34.944,37.256
36.123000000000005,37.512,34.353,36.184,34.943000000000005,37.223
36.218,37.461999999999996,34.354,36.135999999999996,34.942,37.189
36.304,37.413000000000004,34.354,36.088,34.94,37.153
36.382,37.368,34.354,36.04,34.938,37.117
36.45,37.326,34.354,35.993,34.934,37.082
36.51,37.289,34.355,35.946999999999996,34.929,37.049
36.561,37.258,34.357,35.900999999999996,34.922,37.016999999999996
36.604,37.234,34.361999999999995,35.856,34.914,36.986999999999995
36.638000000000005,37.217,34.371,35.811,34.906,36.959
36.664,37.207,34.385999999999996,35.766999999999996,34.897,36.933
36.684,37.204,34.407,35.723,34.888000000000005,36.91
36.695,37.208,34.436,35.678000000000004,34.879,36.889
36.7,37.218,34.475,35.634,34.87,36.869
36.698,37.233000000000004,34.524,35.588,34.861999999999995,36.851
36.69,37.251999999999995,34.584,35.54,34.854,36.834
36.677,37.274,34.656,35.489000000000004,34.847,36.817
36.659,37.299,34.739000000000004,35.435,34.841,36.8
36.638000000000005,37.326,34.833,35.378,34.835,36.783
36.614000000000004,37.356,34.939,35.318000000000005,34.830999999999996,36.764
36.588,37.388000000000005,35.055,35.255,34.827,36.743
36.56,37.422,35.181,35.189,34.825,36.721
36.532,37.455,35.315,35.12,34.824,36.695
36.501999999999995,37.486999999999995,35.457,35.049,34.825,36.668
36.471,37.516,35.606,34.977,34.829,36.637
36.44,37.54,35.759,34.904,34.835,36.605
36.407,37.558,35.914,34.830999999999996,34.846,36.57
36.374,37.567,36.069,34.757,34.861999999999995,36.533
36.341,37.567,36.221,34.684,34.884,36.496
36.308,37.556,36.369,34.61,34.911,36.457
36.275,37.531,36.51,34.536,34.946,36.419000000000004
36.242,37.493,36.644,34.463,34.988,36.381
36.209,37.44,36.77,34.389,35.037,36.342
36.177,37.374,36.887,34.315,35.094,36.303000000000004
36.144,37.293,36.995,34.242,35.158,36.263000000000005
36.111999999999995,37.198,37.093,34.169000000000004,35.227,36.222
36.079,37.09,37.181,34.097,35.301,36.181
36.046,36.969,37.257,34.025999999999996,35.376999999999995,36.14
36.010999999999996,36.835,37.323,33.958,35.455,36.099000000000004
35.976,36.69,37.378,33.893,35.534,36.058
35.939,36.536,37.422,33.830999999999996,35.611999999999995,36.016999999999996
35.900999999999996,36.373000000000005,37.455999999999996,33.774,35.688,35.979
35.863,36.204,37.482,33.721,35.760999999999996,35.942
35.823,36.029,37.5,33.672,35.830999999999996,35.908
35.783,35.851,37.51,33.626,35.896,35.876
35.743,35.671,37.513000000000005,33.583,35.955999999999996,35.847
35.703,35.493,37.51,33.542,36.01,35.821
35.663000000000004,35.319,37.501,33.503,36.058,35.796
35.626,35.150999999999996,37.488,33.466,36.098,35.774
35.591,34.992,37.47,33.431,36.131,35.751999999999995
35.558,34.844,37.449,33.397,36.156,35.733000000000004
35.529,34.708,37.426,33.366,36.173,35.715
35.504,34.585,37.4,33.336,36.184,35.696999999999996
35.483000000000004,34.477,37.372,33.31,36.188,35.681
35.467,34.384,37.342,33.286,36.186,35.664
35.455,34.305,37.311,33.265,36.178000000000004,35.647
35.446999999999996,34.241,37.278,33.247,36.166,35.629
35.444,34.189,37.244,33.233000000000004,36.149,35.611
35.445,34.149,37.209,33.222,36.128,35.592
35.45,34.12,37.174,33.215,36.104,35.571999999999996
35.457,34.101,37.138000000000005,33.211999999999996,36.078,35.55
35.468,34.089,37.1,33.214,36.051,35.529
35.48,34.084,37.06,33.221,36.023,35.507
35.494,34.082,37.018,33.234,35.995,35.484
35.508,34.080999999999996,36.974000000000004,33.253,35.966,35.461
35.524,34.08,36.928000000000004,33.281,35.938,35.439
35.54,34.077,36.881,33.317,35.911,35.417
35.556999999999995,34.073,36.832,33.361999999999995,35.885,35.395
35.574,34.064,36.781,33.418,35.861,35.375
35.592,34.052,36.731,33.485,35.839,35.354
35.61,34.035,36.68,33.562,35.82,35.334
35.626999999999995,34.013000000000005,36.628,33.65,35.802,35.314
35.643,33.986999999999995,36.577,33.749,35.787,35.294000000000004
35.658,33.957,36.525999999999996,33.858000000000004,35.772,35.273
35.672,33.924,36.475,33.977,35.758,35.254
35.684,33.89,36.424,34.105,35.745,35.234
35.696,33.854,36.376,34.241,35.73,35.216
35.707,33.818000000000005,36.328,34.383,35.714,35.198
35.718,33.783,36.283,34.529,35.696,35.181
35.728,33.749,36.241,34.677,35.676,35.166
35.736999999999995,33.718,36.202,34.821999999999996,35.653,35.152
35.745,33.69,36.166,34.965,35.628,35.139
35.75,33.664,36.133,35.101,35.602,35.126
35.755,33.641999999999996,36.104,35.229,35.575,35.114000000000004
35.758,33.623000000000005,36.079,35.345,35.547,35.103
35.759,33.607,36.059,35.449,35.519,35.091
35.76,33.594,36.043,35.539,35.492,35.079
35.758,33.585,36.032,35.614000000000004,35.467,35.065
35.755,33.577,36.024,35.675,35.443000000000005,35.05
35.749,33.571,36.02,35.72,35.421,35.032
35.739000000000004,33.565,36.02,35.75,35.400999999999996,35.014
35.725,33.559,36.022,35.766,35.384,34.994
35.708,33.554,36.025999999999996,35.768,35.368,34.973
35.687,33.548,36.032,35.757,35.355,34.951
35.664,33.541,36.038000000000004,35.736,35.344,34.929
35.638000000000005,33.533,36.043,35.705,35.335,34.908
35.611999999999995,33.524,36.048,35.666,35.328,34.889
35.585,33.514,36.053000000000004,35.621,35.324,34.871
35.556999999999995,33.503,36.056999999999995,35.57,35.321,34.855
35.529,33.492,36.063,35.516,35.321,34.84
35.501,33.482,36.07,35.461,35.323,34.827
35.472,33.473,36.079,35.404,35.326,34.814
35.445,33.465,36.089,35.348,35.333,34.8
35.418,33.458,36.1,35.294000000000004,35.341,34.786
35.394,33.453,36.113,35.241,35.351,34.772
35.37,33.45,36.125,35.189,35.363,34.756
35.347,33.449,36.137,35.138000000000005,35.376,34.74
35.324,33.45,36.148,35.086999999999996,35.391,34.724000000000004
35.301,33.452,36.156,35.034,35.407,34.707
35.278,33.453,36.162,34.98,35.424,34.691
35.255,33.455,36.166,34.922,35.441,34.674
35.231,33.455999999999996,36.167,34.86,35.459,34.658
35.209,33.455999999999996,36.165,34.792,35.475,34.641999999999996
35.187,33.455999999999996,36.16,34.719,35.49,34.628
35.165,33.454,36.152,34.641999999999996,35.503,34.617
35.145,33.451,36.141999999999996,34.559,35.514,34.608000000000004
35.125,33.448,36.129,34.473,35.522,34.604
35.105,33.444,36.115,34.383,35.528,34.604
35.085,33.441,36.098,34.292,35.531,34.611
35.067,33.437,36.079,34.199,35.531,34.625
35.049,33.434,36.058,34.108000000000004,35.53,34.648
35.032,33.431999999999995,36.034,34.018,35.527,34.681999999999995
35.016,33.431,36.009,33.931999999999995,35.522,34.729
35.0,33.431999999999995,35.982,33.85,35.516,34.79
34.982,33.436,35.954,33.775,35.508,34.868
34.961999999999996,33.443000000000005,35.925,33.707,35.501,34.963
34.939,33.454,35.895,33.647,35.492,35.075
34.914,33.469,35.865,33.596,35.483000000000004,35.204
34.887,33.488,35.834,33.554,35.474000000000004,35.35
34.86,33.513000000000005,35.801,33.52,35.465,35.51
34.833,33.544000000000004,35.766999999999996,33.494,35.455,35.681999999999995
34.808,33.584,35.733000000000004,33.477,35.445,35.863
34.786,33.632,35.698,33.466,35.434,36.051
34.766,33.69,35.662,33.46,35.423,36.243
34.747,33.759,35.625,33.46,35.412,36.437
34.731,33.838,35.588,33.463,35.400999999999996,36.629
34.718,33.928000000000004,35.551,33.468,35.391,36.817
34.707,34.031,35.515,33.475,35.38,36.998000000000005
34.699,34.144,35.478,33.481,35.369,37.169000000000004
34.694,34.266999999999996,35.441,33.486,35.358000000000004,37.328
34.692,34.399,35.405,33.488,35.347,37.474000000000004
34.693000000000005,34.539,35.37,33.486999999999995,35.336,37.605
34.698,34.685,35.335,33.482,35.324,37.719
34.704,34.836999999999996,35.302,33.473,35.313,37.817
34.713,34.993,35.269,33.46,35.302,37.897
34.725,35.152,35.238,33.442,35.292,37.959
34.738,35.311,35.207,33.419000000000004,35.281,38.005
34.754,35.467,35.179,33.391999999999996,35.271,38.035
34.771,35.618,35.152,33.361999999999995,35.260999999999996,38.05
34.789,35.764,35.126,33.329,35.251,38.052
34.806,35.903,35.102,33.295,35.241,38.041
34.823,36.035,35.079,33.26,35.23,38.02
34.839,36.157,35.056999999999995,33.228,35.22,37.99
34.854,36.27,35.036,33.198,35.209,37.952
34.868,36.372,35.015,33.173,35.196999999999996,37.907
34.883,36.463,34.993,33.154,35.185,37.858000000000004
34.896,36.541,34.971,33.141999999999996,35.173,37.805
34.909,36.608000000000004,34.949,33.138000000000005,35.161,37.751
34.92,36.664,34.927,33.141999999999996,35.148,37.696999999999996
34.928000000000004,36.708,34.906,33.154,35.135999999999996,37.645
34.935,36.742,34.885,33.176,35.124,37.595
34.939,36.765,34.864000000000004,33.205,35.114000000000004,37.549
34.943000000000005,36.779,34.843,33.241,35.104,37.507
34.945,36.784,34.823,33.283,35.094,37.469
34.948,36.782,34.804,33.329,35.085,37.436
34.95,36.775,34.787,33.378,35.077,37.408
34.953,36.764,34.772,33.427,35.068000000000005,37.383
34.955999999999996,36.75,34.759,33.473,35.06,37.361999999999995
34.961,36.732,34.748000000000005,33.515,35.052,37.343
34.969,36.711999999999996,34.74,33.552,35.043,37.326
34.98,36.69,34.733000000000004,33.580999999999996,35.034,37.311
34.995,36.668,34.726,33.603,35.024,37.296
35.016,36.646,34.72,33.616,35.014,37.281
35.044000000000004,36.624,34.713,33.621,35.003,37.264
35.08,36.602,34.705,33.618,34.993,37.246
35.125,36.578,34.696,33.609,34.983000000000004,37.226
35.179,36.552,34.685,33.594,34.974000000000004,37.204
35.241,36.523,34.673,33.575,34.966,37.179
35.313,36.49,34.658,33.554,34.959,37.152
35.394,36.453,34.641999999999996,33.534,34.953,37.122
35.484,36.412,34.623000000000005,33.515,34.949,37.088
35.582,36.367,34.603,33.501,34.946999999999996,37.053000000000004
35.689,36.318000000000005,34.580999999999996,33.493,34.946,37.016
35.804,36.266,34.558,33.494,34.946999999999996,36.978
35.926,36.211,34.536,33.504,34.948,36.942
36.056,36.155,34.515,33.523,34.95,36.907
36.191,36.099000000000004,34.495,33.55,34.951,36.875
36.332,36.045,34.478,33.586,34.951,36.848
36.477,35.993,34.461999999999996,33.629,34.95,36.828
36.625,35.944,34.45,33.677,34.946999999999996,36.816
36.773,35.898,34.439,33.728,34.942,36.814
36.92,35.855,34.431,33.782,34.935,36.824
37.063,35.815,34.423,33.836,34.927,36.847
37.2,35.778,34.415,33.889,34.917,36.884
37.329,35.743,34.407,33.94,34.905,36.936
37.446999999999996,35.71,34.397,33.986999999999995,34.893,37.003
37.555,35.678000000000004,34.388000000000005,34.029,34.881,37.086
37.65,35.646,34.376999999999995,34.065,34.869,37.183
37.731,35.616,34.367,34.097,34.858000000000004,37.295
37.799,35.586,34.356,34.123000000000005,34.848,37.419000000000004
37.851,35.558,34.344,34.146,34.841,37.554
37.887,35.531,34.332,34.166,34.835,37.696999999999996
37.907,35.505,34.319,34.185,34.830999999999996,37.846
37.909,35.48,34.305,34.205,34.829,37.997
37.895,35.455999999999996,34.291,34.227,34.828,38.149
37.865,35.434,34.277,34.255,34.829,38.298
37.82,35.415,34.262,34.291,34.83,38.442
37.762,35.4,34.246,34.336999999999996,34.830999999999996,38.579
37.695,35.389,34.231,34.396,34.832,38.707
37.621,35.382,34.215,34.469,34.832,38.823
37.544000000000004,35.378,34.2,34.555,34.83,38.927
37.465,35.378,34.184,34.654,34.828,39.015
37.387,35.382,34.171,34.765,34.824,39.088
37.312,35.39,34.158,34.885999999999996,34.819,39.145
37.241,35.400999999999996,34.148,35.013000000000005,34.812,39.183
37.174,35.417,34.14,35.144,34.804,39.204
37.114000000000004,35.436,34.135,35.275,34.795,39.207
37.059,35.455999999999996,34.133,35.400999999999996,34.786,39.193000000000005
37.009,35.479,34.135,35.52,34.777,39.162
36.963,35.501999999999995,34.141,35.629,34.766999999999996,39.117
36.922,35.525,34.15,35.723,34.758,39.056
36.883,35.549,34.162,35.799,34.749,38.982
36.847,35.571999999999996,34.179,35.854,34.74,38.897
36.812,35.592,34.2,35.887,34.733000000000004,38.801
36.777,35.61,34.226,35.895,34.725,38.696999999999996
36.741,35.625,34.258,35.878,34.719,38.586999999999996
36.704,35.638000000000005,34.298,35.836999999999996,34.711999999999996,38.472
36.665,35.649,34.347,35.773,34.705,38.355
36.624,35.657,34.407,35.689,34.698,38.238
36.578,35.664,34.478,35.589,34.692,38.121
36.525999999999996,35.669000000000004,34.563,35.477,34.687,38.005
36.467,35.671,34.66,35.358000000000004,34.683,37.893
36.4,35.672,34.772,35.235,34.681999999999995,37.785
36.324,35.672,34.896,35.111999999999995,34.683,37.681999999999995
36.239000000000004,35.671,35.033,34.995,34.688,37.584
36.147,35.668,35.181,34.887,34.695,37.49
36.049,35.664,35.336999999999996,34.79,34.705999999999996,37.400999999999996
35.945,35.657,35.501,34.709,34.721,37.316
35.836999999999996,35.646,35.67,34.645,34.74,37.234
35.726,35.633,35.841,34.6,34.765,37.154
35.615,35.618,36.012,34.576,34.795,37.077
35.506,35.6,36.179,34.571999999999996,34.83,37.001
35.400999999999996,35.580999999999996,36.34,34.591,34.871,36.926
35.304,35.559,36.495,34.631,34.917,36.853
35.215,35.535,36.641,34.692,34.97,36.782
35.138000000000005,35.51,36.777,34.771,35.029,36.713
35.073,35.483000000000004,36.902,34.868,35.093,36.646
35.02,35.455,37.016,34.982,35.161,36.582
34.978,35.427,37.118,35.109,35.234,36.523
34.946999999999996,35.398,37.208,35.247,35.31,36.47
34.926,35.369,37.287,35.395,35.389,36.424
34.914,35.34,37.354,35.55,35.47,36.387
34.911,35.312,37.411,35.708,35.551,36.361
34.917,35.284,37.457,35.868,35.632,36.347
34.931,35.258,37.492,36.025,35.713,36.346
34.953,35.233000000000004,37.516999999999996,36.179,35.792,36.358000000000004
34.982,35.207,37.532,36.327,35.867,36.384
35.016999999999996,35.18,37.54,36.468,35.939,36.424
35.055,35.153,37.539,36.6,36.005,36.476
35.098,35.125,37.532,36.722,36.065,36.541
35.144,35.097,37.52,36.832,36.117,36.617
35.194,35.069,37.503,36.929,36.161,36.702
35.246,35.04,37.482,37.014,36.198,36.794000000000004
35.301,35.012,37.459,37.085,36.225,36.891
35.357,34.983000000000004,37.434,37.144,36.245,36.991
35.413000000000004,34.955,37.407,37.19,36.257,37.09
35.466,34.926,37.379,37.225,36.262,37.186
35.516,34.899,37.348,37.249,36.260999999999996,37.275999999999996
35.562,34.872,37.316,37.262,36.255,37.358000000000004
35.604,34.846,37.281,37.265,36.243,37.428000000000004
35.641,34.821,37.244,37.26,36.227,37.485
35.675,34.795,37.203,37.247,36.208,37.527
35.705,34.77,37.16,37.226,36.186,37.555
35.731,34.745,37.115,37.2,36.163000000000004,37.566
35.751999999999995,34.721,37.067,37.17,36.14,37.561
35.768,34.696,37.018,37.137,36.117,37.542
35.779,34.672,36.967,37.102,36.094,37.507
35.785,34.647,36.915,37.067,36.074,37.46
35.786,34.623000000000005,36.861999999999995,37.033,36.055,37.400999999999996
35.784,34.599000000000004,36.808,37.001,36.037,37.332
35.78,34.576,36.754,36.972,36.021,37.253
35.774,34.553000000000004,36.7,36.946,36.005,37.166
35.766999999999996,34.531,36.646,36.925,35.99,37.071999999999996
35.758,34.51,36.593,36.907,35.974000000000004,36.972
35.748000000000005,34.489000000000004,36.541,36.894,35.958,36.867
35.736,34.469,36.488,36.883,35.941,36.759
35.721,34.451,36.436,36.875,35.923,36.649
35.705,34.434,36.384,36.868,35.904,36.539
35.685,34.418,36.333,36.861,35.882,36.431
35.662,34.404,36.283,36.855,35.86,36.325
35.635999999999996,34.389,36.236,36.847,35.836,36.224000000000004
35.607,34.375,36.189,36.836999999999996,35.813,36.128
35.575,34.361,36.144,36.824,35.79,36.038000000000004
35.54,34.347,36.101,36.805,35.769,35.955
35.501999999999995,34.334,36.06,36.78,35.748000000000005,35.878
35.461,34.321,36.021,36.748000000000005,35.728,35.806
35.419000000000004,34.306999999999995,35.985,36.708,35.708,35.739000000000004
35.375,34.291,35.952,36.661,35.688,35.676
35.33,34.275999999999996,35.923,36.606,35.669000000000004,35.616
35.283,34.26,35.898,36.545,35.649,35.558
35.235,34.245,35.876,36.478,35.629,35.501999999999995
35.186,34.231,35.857,36.409,35.609,35.446999999999996
35.135,34.218,35.841,36.338,35.588,35.393
35.083,34.205999999999996,35.829,36.269,35.568000000000005,35.34
35.031,34.196,35.821,36.203,35.549,35.286
34.979,34.188,35.815,36.141999999999996,35.53,35.233000000000004
34.927,34.183,35.814,36.086999999999996,35.513000000000005,35.18
34.876,34.181,35.815,36.04,35.498000000000005,35.128
34.827,34.18,35.82,36.001,35.485,35.076
34.779,34.181999999999995,35.828,35.971,35.475,35.025
34.734,34.187,35.839,35.948,35.468,34.974000000000004
34.693000000000005,34.196,35.853,35.934,35.463,34.925
34.655,34.211,35.868,35.927,35.461999999999996,34.876
34.623000000000005,34.232,35.884,35.926,35.463,34.83
34.595,34.26,35.9,35.93,35.468,34.785
34.573,34.296,35.917,35.938,35.475,34.741
34.555,34.342,35.933,35.946999999999996,35.485,34.7
34.542,34.398,35.948,35.957,35.496,34.661
34.532,34.467,35.963,35.967,35.509,34.625
34.524,34.548,35.976,35.976,35.522,34.59
34.516999999999996,34.641999999999996,35.986999999999995,35.984,35.536,34.558
34.51,34.748000000000005,35.997,35.991,35.55,34.528
34.503,34.865,36.003,35.998000000000005,35.564,34.501
34.496,34.993,36.008,36.003,35.578,34.477
34.486999999999995,35.129,36.010999999999996,36.006,35.592,34.455999999999996
34.477,35.273,36.010999999999996,36.007,35.606,34.437
34.466,35.422,36.008,36.007,35.619,34.42
34.455,35.575,36.004,36.005,35.633,34.405
34.444,35.729,35.997,36.003,35.646,34.391999999999996
34.434,35.881,35.988,36.0,35.658,34.38
34.423,36.029,35.977,35.996,35.67,34.369
34.414,36.171,35.963,35.991,35.681999999999995,34.359
34.405,36.306,35.946999999999996,35.986,35.693000000000005,34.35
34.397,36.433,35.929,35.981,35.704,34.343
34.391,36.55,35.909,35.976,35.714,34.336999999999996
34.385999999999996,36.657,35.885,35.972,35.722,34.330999999999996
34.382,36.753,35.86,35.969,35.728,34.327
34.379,36.836999999999996,35.833,35.966,35.732,34.326
34.378,36.909,35.804,35.963,35.733000000000004,34.328
34.376999999999995,36.968,35.775999999999996,35.961,35.731,34.334
34.378,37.016,35.747,35.959,35.727,34.347
34.378,37.051,35.718,35.955999999999996,35.719,34.368
34.376999999999995,37.073,35.689,35.952,35.71,34.398
34.375,37.083,35.66,35.945,35.698,34.437
34.372,37.082,35.631,35.935,35.686,34.485
34.37,37.071,35.602,35.922,35.672,34.543
34.367,37.051,35.573,35.906,35.658,34.611999999999995
34.366,37.023,35.544000000000004,35.885,35.643,34.689
34.365,36.989000000000004,35.515,35.859,35.628,34.775
34.365,36.95,35.486,35.829,35.611999999999995,34.87
34.365,36.906,35.458,35.795,35.596,34.971
34.366,36.86,35.431,35.757,35.58,35.077
34.367,36.814,35.403,35.716,35.563,35.188
34.369,36.766999999999996,35.375,35.674,35.544000000000004,35.302
34.374,36.722,35.346,35.63,35.525,35.416
34.381,36.679,35.315,35.586,35.505,35.53
34.394,36.638000000000005,35.282,35.543,35.483000000000004,35.641
34.412,36.598,35.248000000000005,35.503,35.46,35.748000000000005
34.435,36.559,35.213,35.465,35.437,35.848
34.466,36.521,35.176,35.431999999999995,35.412,35.94
34.505,36.482,35.139,35.402,35.387,36.025
34.553000000000004,36.442,35.102,35.375,35.363,36.099000000000004
34.611,36.4,35.066,35.351,35.34,36.162
34.68,36.355,35.03,35.328,35.319,36.213
34.758,36.306999999999995,34.997,35.306,35.299,36.251
34.845,36.255,34.965,35.284,35.282,36.277
34.941,36.201,34.936,35.26,35.266,36.29
35.044000000000004,36.145,34.909,35.235,35.251999999999995,36.29
35.153,36.086999999999996,34.883,35.208,35.239000000000004,36.28
35.266999999999996,36.028,34.859,35.179,35.227,36.258
35.384,35.968,34.836,35.148,35.216,36.228
35.503,35.908,34.814,35.116,35.205,36.189
35.622,35.848,34.793,35.082,35.193000000000005,36.145
35.741,35.788000000000004,34.772,35.046,35.181999999999995,36.095
35.857,35.73,34.75,35.01,35.171,36.043
35.969,35.675,34.728,34.972,35.159,35.989000000000004
36.075,35.622,34.704,34.934,35.146,35.935
36.173,35.571999999999996,34.679,34.896,35.133,35.883
36.263000000000005,35.525,34.653,34.857,35.12,35.834
36.344,35.48,34.626,34.82,35.107,35.786
36.416,35.44,34.598,34.784,35.093,35.741
36.478,35.403,34.571999999999996,34.749,35.08,35.698
36.531,35.371,34.547,34.717,35.068000000000005,35.657
36.575,35.344,34.524,34.687,35.056,35.616
36.61,35.321,34.503,34.659,35.046,35.577
36.635999999999996,35.302,34.483000000000004,34.633,35.036,35.538000000000004
36.653,35.287,34.464,34.609,35.028,35.499
36.663000000000004,35.275999999999996,34.446,34.586,35.022,35.459
36.665,35.269,34.428000000000004,34.563,35.018,35.42
36.661,35.265,34.41,34.542,35.016,35.379
36.652,35.265,34.391999999999996,34.521,35.016,35.336
36.639,35.268,34.374,34.501999999999995,35.016,35.292
36.624,35.273,34.358000000000004,34.484,35.016,35.246
36.606,35.282,34.344,34.47,35.016,35.199
36.586999999999996,35.292,34.332,34.458,35.016,35.15
36.566,35.305,34.321999999999996,34.449,35.014,35.098
36.545,35.319,34.314,34.443000000000005,35.012,35.045
36.522,35.334,34.308,34.439,35.009,34.99
36.499,35.35,34.303000000000004,34.438,35.006,34.935
36.476,35.367,34.299,34.439,35.004,34.879
36.453,35.384,34.294000000000004,34.443000000000005,35.003,34.824
36.431,35.402,34.289,34.449,35.001999999999995,34.77
36.41,35.42,34.284,34.458,35.003,34.717
36.389,35.438,34.278,34.472,35.005,34.667
36.368,35.457,34.271,34.493,35.009,34.62
36.346,35.476,34.264,34.522,35.012,34.577
36.324,35.495,34.258,34.561,35.016,34.54
36.3,35.514,34.251999999999995,34.611,35.02,34.509
36.275,35.532,34.248000000000005,34.674,35.024,34.485
36.248000000000005,35.551,34.245,34.751,35.027,34.471
36.22,35.569,34.244,34.842,35.029,34.465
36.191,35.585,34.246,34.948,35.032,34.468
36.161,35.599000000000004,34.249,35.067,35.033,34.481
36.13,35.61,34.254,35.2,35.035,34.503
36.097,35.618,34.259,35.343,35.036,34.535
36.063,35.624,34.264,35.495,35.036,34.575
36.027,35.626,34.266999999999996,35.652,35.036,34.625
35.99,35.624,34.266999999999996,35.811,35.036,34.683
35.953,35.618,34.264,35.97,35.035,34.749
35.917,35.607,34.257,36.124,35.034,34.821999999999996
35.882,35.592,34.247,36.27,35.032,34.900999999999996
35.85,35.573,34.233000000000004,36.405,35.031,34.985
35.82,35.549,34.217,36.525999999999996,35.03,35.073
35.793,35.523,34.199,36.631,35.03,35.163000000000004
35.769,35.494,34.18,36.721,35.03,35.255
35.749,35.464,34.16,36.795,35.029,35.346
35.735,35.433,34.141999999999996,36.855,35.028,35.436
35.727,35.403,34.125,36.902,35.025999999999996,35.523
35.726,35.373000000000005,34.111,36.939,35.022,35.605
35.735,35.344,34.099000000000004,36.966,35.018,35.681
35.751,35.316,34.091,36.986999999999995,35.013000000000005,35.751
35.775999999999996,35.29,34.086999999999996,37.001,35.008,35.813
35.806999999999995,35.263000000000005,34.09,37.01,35.003,35.867
35.845,35.236999999999995,34.098,37.016,34.998000000000005,35.913000000000004
35.889,35.21,34.111999999999995,37.018,34.993,35.951
35.937,35.183,34.134,37.016999999999996,34.988,35.981
35.99,35.156,34.161,37.013000000000005,34.984,36.001
36.046,35.128,34.196,37.005,34.98,36.014
36.105,35.099000000000004,34.238,36.994,34.978,36.016999999999996
36.168,35.069,34.287,36.979,34.976,36.012
36.234,35.039,34.344,36.959,34.976,35.999
36.303000000000004,35.007,34.41,36.936,34.978,35.977
36.372,34.974000000000004,34.485,36.908,34.982,35.948
36.441,34.938,34.57,36.876,34.99,35.911
36.51,34.902,34.665,36.84,35.003,35.868
36.579,34.864000000000004,34.77,36.801,35.021,35.819
36.646,34.825,34.885,36.76,35.044000000000004,35.765
36.713,34.787,35.009,36.718,35.074,35.708
36.778,34.75,35.141,36.677,35.111,35.647
36.841,34.714,35.28,36.635999999999996,35.155,35.583
36.900999999999996,34.681,35.426,36.598,35.205999999999996,35.518
36.955,34.649,35.577,36.562,35.264,35.452
37.003,34.619,35.731,36.53,35.329,35.385
37.043,34.59,35.887,36.501999999999995,35.4,35.319
37.074,34.563,36.042,36.479,35.475,35.254
37.096,34.538000000000004,36.196,36.461,35.553000000000004,35.192
37.109,34.514,36.347,36.446,35.633,35.132
37.115,34.491,36.492,36.435,35.714,35.074
37.114000000000004,34.469,36.63,36.428000000000004,35.793,35.02
37.106,34.446999999999996,36.76,36.425,35.869,34.968
37.091,34.426,36.881,36.426,35.941,34.919000000000004
37.07,34.405,36.99,36.433,36.009,34.873000000000005
37.041,34.384,37.089,36.446999999999996,36.07,34.829
37.004,34.361999999999995,37.175,36.469,36.125,34.787
36.96,34.34,37.251,36.499,36.174,34.747
36.909,34.319,37.314,36.54,36.217,34.709
36.852,34.297,37.367,36.592,36.253,34.673
36.789,34.275999999999996,37.409,36.655,36.284,34.638000000000005
36.723,34.255,37.442,36.731,36.308,34.605
36.654,34.235,37.465,36.82,36.328,34.574
36.583,34.216,37.479,36.922,36.343,34.545
36.51,34.198,37.485,37.037,36.355,34.519
36.438,34.179,37.482,37.168,36.363,34.497
36.366,34.161,37.472,37.313,36.368,34.48
36.296,34.143,37.455999999999996,37.473,36.37,34.468
36.228,34.125,37.434,37.648,36.369,34.46
36.164,34.108000000000004,37.406,37.836,36.364000000000004,34.455999999999996
36.103,34.091,37.373000000000005,38.037,36.357,34.455999999999996
36.048,34.075,37.336999999999996,38.248000000000005,36.347,34.46
35.996,34.059,37.297,38.467,36.333,34.467
35.949,34.045,37.255,38.69,36.316,34.478
35.906,34.031,37.211,38.913000000000004,36.297,34.49
35.868,34.018,37.166,39.13,36.275999999999996,34.505
35.834,34.006,37.121,39.336,36.254,34.521
35.805,33.995,37.078,39.524,36.232,34.538000000000004
35.779,33.985,37.035,39.69,36.211,34.555
35.758,33.976,36.993,39.827,36.191,34.571999999999996
35.741,33.967,36.952,39.933,36.173,34.586999999999996
35.728,33.96,36.911,40.004,36.156,34.601
35.721,33.953,36.869,40.039,36.141,34.613
35.719,33.948,36.827,40.036,36.126999999999995,34.622
35.723,33.944,36.784,39.999,36.114000000000004,34.628
35.734,33.943000000000005,36.739000000000004,39.927,36.103,34.631
35.751999999999995,33.945,36.693000000000005,39.824,36.091,34.631
35.778,33.949,36.645,39.693000000000005,36.08,34.629
35.81,33.957,36.596,39.538000000000004,36.067,34.625
35.848,33.97,36.546,39.364000000000004,36.053000000000004,34.62
35.893,33.986999999999995,36.496,39.177,36.036,34.613
35.943000000000005,34.01,36.446,38.982,36.016999999999996,34.605
35.998000000000005,34.04,36.396,38.784,35.996,34.595
36.056,34.078,36.347,38.589,35.974000000000004,34.582
36.116,34.125,36.299,38.400999999999996,35.95,34.567
36.175,34.183,36.253,38.221,35.925,34.549
36.232,34.251999999999995,36.209,38.052,35.9,34.527
36.285,34.333,36.167,37.895,35.875,34.501999999999995
36.330999999999996,34.425,36.126,37.751999999999995,35.849000000000004,34.475
36.367,34.528,36.088,37.621,35.824,34.445
36.393,34.641,36.052,37.501999999999995,35.8,34.415
36.407,34.763000000000005,36.018,37.395,35.777,34.383
36.406,34.894,35.986,37.297,35.756,34.353
36.391,35.032,35.958,37.205999999999996,35.736999999999995,34.323
36.359,35.175,35.933,37.121,35.721,34.295
36.312,35.321999999999996,35.911,37.04,35.708,34.27
36.25,35.469,35.893,36.961,35.696999999999996,34.247
36.173,35.616,35.876999999999995,36.882,35.689,34.225
36.083,35.76,35.864000000000004,36.803000000000004,35.684,34.204
35.981,35.9,35.853,36.722,35.68,34.183
35.871,36.033,35.845,36.638000000000005,35.677,34.161
35.754,36.159,35.84,36.55,35.676,34.138000000000005
35.635,36.275,35.839,36.458,35.676,34.115
35.516,36.381,35.841,36.36,35.676,34.092
35.4,36.475,35.846,36.257,35.678000000000004,34.069
35.288000000000004,36.556999999999995,35.855,36.149,35.681,34.046
35.18,36.626999999999995,35.867,36.036,35.684,34.023
35.078,36.684,35.881,35.919000000000004,35.688,34.001999999999995
34.98,36.729,35.897,35.8,35.694,33.981
34.889,36.760999999999996,35.913000000000004,35.678000000000004,35.701,33.961999999999996
34.803000000000004,36.781,35.929,35.556999999999995,35.708,33.943000000000005
34.722,36.79,35.944,35.438,35.717,33.926
34.648,36.789,35.959,35.323,35.727,33.911
34.579,36.779,35.971,35.211999999999996,35.736999999999995,33.897
34.515,36.760999999999996,35.982,35.109,35.748000000000005,33.885999999999996
34.458,36.736999999999995,35.991,35.014,35.76,33.879
34.407,36.707,35.998000000000005,34.93,35.771,33.876
34.364000000000004,36.672,36.003,34.858000000000004,35.782,33.878
34.33,36.635,36.007,34.798,35.793,33.889
34.305,36.595,36.009,34.753,35.804,33.908
34.292,36.555,36.01,34.722,35.814,33.937
34.29,36.514,36.009,34.705999999999996,35.823,33.978
34.3,36.473,36.008,34.704,35.830999999999996,34.032
34.321999999999996,36.431,36.004,34.718,35.838,34.099000000000004
34.358000000000004,36.388000000000005,35.997,34.745,35.843,34.181
34.407,36.344,35.988,34.786,35.846,34.279
34.47,36.298,35.974000000000004,34.839,35.847,34.391999999999996
34.547,36.251999999999995,35.958,34.900999999999996,35.847,34.52
34.638000000000005,36.205,35.938,34.97,35.845,34.662
34.741,36.158,35.916,35.043,35.841,34.816
34.855,36.11,35.891999999999996,35.116,35.836,34.981
34.98,36.061,35.866,35.186,35.829,35.154
35.113,36.010999999999996,35.84,35.25,35.821999999999996,35.335
35.253,35.96,35.813,35.304,35.813,35.519
35.398,35.909,35.785,35.348,35.803000000000004,35.705
35.548,35.858000000000004,35.758,35.379,35.792,35.889
35.699,35.808,35.732,35.395,35.78,36.068000000000005
35.851,35.757,35.704,35.396,35.766,36.24
36.0,35.705999999999996,35.677,35.381,35.751,36.403
36.146,35.655,35.649,35.351,35.735,36.554
36.285,35.604,35.62,35.306,35.718,36.692
36.418,35.554,35.589,35.247,35.701,36.814
36.542,35.504,35.556999999999995,35.177,35.683,36.921
36.656,35.455,35.524,35.098,35.666,37.01
36.760999999999996,35.406,35.488,35.012,35.65,37.083
36.857,35.357,35.451,34.921,35.634,37.138000000000005
36.942,35.309,35.414,34.83,35.619,37.177
37.016,35.260999999999996,35.375,34.741,35.606,37.199
37.078,35.214,35.336,34.658,35.593,37.205
37.129,35.169000000000004,35.296,34.584,35.582,37.198
37.17,35.126999999999995,35.256,34.522,35.571,37.178000000000004
37.199,35.086999999999996,35.216,34.474000000000004,35.561,37.148
37.22,35.052,35.177,34.444,35.551,37.11
37.232,35.021,35.138000000000005,34.431999999999995,35.542,37.065
37.238,34.995,35.099000000000004,34.441,35.531,37.015
37.236999999999995,34.976,35.062,34.471,35.521,36.96
37.231,34.961999999999996,35.025,34.523,35.509,36.902
37.218,34.953,34.989000000000004,34.596,35.497,36.843
37.2,34.949,34.954,34.691,35.483000000000004,36.782
37.176,34.948,34.92,34.806999999999995,35.469,36.722
37.147,34.952,34.887,34.941,35.454,36.661
37.113,34.96,34.854,35.094,35.439,36.602
37.076,34.971,34.821,35.260999999999996,35.422,36.544000000000004
37.037,34.985,34.787,35.442,35.406,36.488
36.996,35.001,34.753,35.635,35.39,36.435
36.954,35.018,34.719,35.835,35.375,36.385
36.913000000000004,35.036,34.685,36.04,35.361999999999995,36.338
36.87,35.054,34.652,36.247,35.35,36.294000000000004
36.828,35.073,34.622,36.452,35.34,36.253
36.784,35.093,34.593,36.654,35.33,36.215
36.741,35.111999999999995,34.565,36.851,35.321,36.179
36.696999999999996,35.131,34.538000000000004,37.042,35.314,36.145
36.654,35.149,34.510999999999996,37.225,35.306999999999995,36.114000000000004
36.611999999999995,35.166,34.485,37.4,35.3,36.084
36.571,35.181,34.458,37.566,35.294000000000004,36.055
36.529,35.196,34.431,37.723,35.289,36.025999999999996
36.486999999999995,35.209,34.405,37.871,35.284,35.997
36.444,35.221,34.378,38.01,35.279,35.967
36.4,35.23,34.351,38.139,35.274,35.937
36.353,35.236999999999995,34.324,38.259,35.268,35.905
36.304,35.241,34.299,38.369,35.262,35.871
36.255,35.244,34.273,38.468,35.256,35.835
36.205,35.245,34.249,38.556999999999995,35.249,35.798
36.157,35.243,34.226,38.634,35.242,35.758
36.113,35.239000000000004,34.203,38.7,35.235,35.718
36.071999999999996,35.232,34.181,38.753,35.228,35.676
36.034,35.223,34.16,38.794000000000004,35.223,35.635
36.001,35.211999999999996,34.141,38.821999999999996,35.218,35.594
35.971,35.2,34.123000000000005,38.838,35.213,35.554
35.945,35.186,34.108000000000004,38.842,35.208,35.515
35.921,35.171,34.096,38.836999999999996,35.203,35.479
35.900999999999996,35.154,34.088,38.823,35.196999999999996,35.446
35.885999999999996,35.135,34.084,38.802,35.19,35.417
35.876999999999995,35.115,34.082,38.777,35.183,35.393
35.872,35.093,34.083,38.751,35.175,35.373000000000005
35.873000000000005,35.07,34.086,38.725,35.167,35.359
35.878,35.046,34.089,38.702,35.159,35.351
35.885999999999996,35.02,34.093,38.681,35.152,35.35
35.897,34.994,34.097,38.665,35.146,35.354
35.911,34.966,34.1,38.654,35.141,35.364000000000004
35.927,34.938,34.101,38.648,35.138000000000005,35.38
35.945,34.909,34.101,38.646,35.135,35.400999999999996
35.967,34.879,34.1,38.649,35.134,35.425
35.991,34.85,34.097,38.655,35.132,35.451
36.016,34.82,34.095,38.663000000000004,35.13,35.478
36.041,34.79,34.094,38.67,35.128,35.505
36.067,34.76,34.094,38.675,35.124,35.531
36.091,34.73,34.098,38.677,35.121,35.554
36.114000000000004,34.699,34.106,38.672,35.117,35.574
36.135999999999996,34.67,34.118,38.661,35.111999999999995,35.592
36.156,34.64,34.138000000000005,38.641,35.107,35.608000000000004
36.176,34.61,34.165,38.613,35.102,35.621
36.195,34.579,34.202,38.576,35.098,35.632
36.213,34.55,34.248000000000005,38.531,35.092,35.641
36.229,34.52,34.306,38.478,35.086999999999996,35.647
36.242,34.492,34.376,38.418,35.082,35.652
36.253,34.464,34.455999999999996,38.352,35.076,35.655
36.262,34.437,34.548,38.283,35.07,35.655
36.268,34.409,34.652,38.211999999999996,35.065,35.654
36.273,34.382,34.766,38.139,35.059,35.652
36.277,34.354,34.89,38.067,35.053000000000004,35.647
36.279,34.327,35.023,37.996,35.047,35.64
36.28,34.299,35.162,37.928000000000004,35.041,35.63
36.278,34.272,35.306999999999995,37.861999999999995,35.036,35.618
36.273,34.244,35.453,37.801,35.03,35.603
36.265,34.216,35.6,37.744,35.025999999999996,35.585
36.256,34.189,35.745,37.691,35.02,35.566
36.245,34.163000000000004,35.887,37.641,35.014,35.545
36.233000000000004,34.137,36.024,37.592,35.007,35.522
36.221,34.111,36.156,37.545,34.999,35.499
36.209,34.086,36.282,37.497,34.992,35.475
36.196999999999996,34.061,36.400999999999996,37.45,34.984,35.451
36.183,34.036,36.512,37.402,34.977,35.426
36.168,34.012,36.615,37.354,34.97,35.4
36.150999999999996,33.986999999999995,36.708,37.306,34.961999999999996,35.374
36.132,33.963,36.791,37.257,34.955999999999996,35.347
36.111,33.938,36.863,37.209,34.95,35.319
36.086999999999996,33.913000000000004,36.925,37.162,34.945,35.29
36.061,33.888000000000005,36.976,37.116,34.941,35.259
36.034,33.865,37.016999999999996,37.071,34.94,35.228
36.006,33.842,37.047,37.029,34.942,35.196
35.975,33.821999999999996,37.066,36.986999999999995,34.946,35.164
35.944,33.803000000000004,37.077,36.946,34.955,35.133
35.912,33.787,37.077,36.905,34.968,35.102
35.88,33.772,37.069,36.861999999999995,34.986999999999995,35.071
35.848,33.760999999999996,37.053000000000004,36.816,35.014,35.041
35.818000000000005,33.751999999999995,37.03,36.766,35.048,35.010999999999996
35.789,33.747,37.001,36.709,35.09,34.983000000000004
35.762,33.743,36.968,36.644,35.14,34.954
35.736,33.74,36.931999999999995,36.571,35.196999999999996,34.925
35.709,33.738,36.893,36.488,35.262,34.896
35.683,33.735,36.852,36.397,35.334,34.865
35.656,33.733000000000004,36.811,36.299,35.412,34.833
35.628,33.729,36.77,36.196999999999996,35.495,34.8
35.601,33.725,36.729,36.096,35.580999999999996,34.766999999999996
35.573,33.72,36.688,36.001999999999995,35.669000000000004,34.733000000000004
35.546,33.711999999999996,36.647,35.923,35.758,34.7
35.519,33.701,36.606,35.866,35.844,34.668
35.493,33.689,36.564,35.838,35.928000000000004,34.637
35.468,33.675,36.52,35.845,36.007,34.607
35.443000000000005,33.659,36.474000000000004,35.893,36.08,34.58
35.419000000000004,33.643,36.425,35.984,36.147,34.555
35.394,33.625,36.373000000000005,36.122,36.207,34.532
35.371,33.607,36.319,36.306999999999995,36.258,34.512
35.348,33.588,36.263000000000005,36.537,36.301,34.494
35.326,33.569,36.205,36.809,36.335,34.477
35.306,33.552,36.145,37.118,36.361999999999995,34.461
35.286,33.536,36.083,37.458,36.379,34.445
35.266999999999996,33.523,36.02,37.821,36.389,34.429
35.249,33.512,35.957,38.198,36.391999999999996,34.412
35.231,33.503,35.893,38.579,36.388000000000005,34.394
35.213,33.498000000000005,35.83,38.954,36.379,34.376
35.194,33.495,35.768,39.313,36.366,34.357
35.175,33.494,35.707,39.647,36.348,34.338
35.157,33.496,35.649,39.946,36.328,34.318000000000005
35.139,33.499,35.593,40.203,36.305,34.299
35.121,33.505,35.54,40.414,36.282,34.28
35.103,33.512,35.49,40.574,36.259,34.262
35.085,33.521,35.443000000000005,40.681999999999995,36.236,34.245
35.068000000000005,33.534,35.399,40.736,36.214,34.23
35.051,33.551,35.357,40.736999999999995,36.192,34.215
35.035,33.574,35.318000000000005,40.688,36.171,34.201
35.022,33.602,35.281,40.593,36.150999999999996,34.188
35.01,33.639,35.247,40.455999999999996,36.132,34.175
35.0,33.686,35.214,40.283,36.113,34.162
34.992,33.743,35.184,40.082,36.095,34.15
34.984,33.812,35.157,39.857,36.077,34.139
34.977,33.893,35.133,39.617,36.06,34.126999999999995
34.969,33.986,35.111999999999995,39.366,36.044000000000004,34.115
34.96,34.09,35.095,39.11,36.029,34.101
34.952,34.205999999999996,35.080999999999996,38.854,36.015,34.086999999999996
34.943000000000005,34.330999999999996,35.071,38.603,36.001999999999995,34.07
34.934,34.465,35.065,38.361999999999995,35.99,34.051
34.923,34.605,35.063,38.132,35.979,34.03
34.912,34.75,35.065,37.917,35.969,34.007
34.9,34.897,35.07,37.719,35.959,33.982
34.887,35.044000000000004,35.078,37.539,35.95,33.955999999999996
34.874,35.189,35.088,37.38,35.939,33.928000000000004
34.861999999999995,35.328,35.099000000000004,37.24,35.928000000000004,33.899
34.851,35.461,35.111,37.119,35.916,33.87
34.841,35.585,35.123000000000005,37.015,35.902,33.842
34.833,35.699,35.135,36.927,35.887,33.814
34.824,35.801,35.146,36.851,35.869,33.788000000000004
34.816,35.891,35.156,36.786,35.851,33.763000000000005
34.808,35.969,35.166,36.729,35.830999999999996,33.74
34.801,36.036,35.176,36.678000000000004,35.81,33.719
34.793,36.091,35.187,36.63,35.788000000000004,33.7
34.785,36.135,35.196999999999996,36.584,35.766999999999996,33.684
34.778,36.168,35.208,36.536,35.747,33.672
34.771,36.19,35.22,36.486,35.727,33.662
34.765,36.202,35.233000000000004,36.431999999999995,35.709,33.657
34.759,36.205999999999996,35.247,36.372,35.691,33.656
34.754,36.201,35.260999999999996,36.305,35.675,33.66
34.749,36.19,35.275999999999996,36.232,35.662,33.67
34.746,36.173,35.29,36.152,35.65,33.688
34.745,36.150999999999996,35.303000000000004,36.066,35.641,33.715
34.747,36.124,35.316,35.974000000000004,35.634,33.751999999999995
34.751999999999995,36.093,35.326,35.879,35.628,33.8
34.762,36.059,35.333,35.783,35.624,33.861999999999995
34.778,36.023,35.336999999999996,35.687,35.622,33.936
34.8,35.985,35.336,35.594,35.622,34.023
34.83,35.946,35.330999999999996,35.504,35.624,34.123000000000005
34.868,35.906,35.323,35.419000000000004,35.626999999999995,34.235
34.913000000000004,35.864000000000004,35.311,35.343,35.632,34.359
34.967,35.821,35.297,35.277,35.638000000000005,34.495
35.029,35.775999999999996,35.28,35.225,35.645,34.64
35.098,35.73,35.262,35.188,35.653,34.795
35.176,35.684,35.243,35.168,35.662,34.955999999999996
35.260999999999996,35.637,35.223,35.168,35.671,35.123000000000005
35.355,35.589,35.202,35.189,35.68,35.292
35.455999999999996,35.541,35.179,35.232,35.689,35.461999999999996
35.563,35.492,35.156,35.298,35.698,35.631
35.676,35.443000000000005,35.133,35.385999999999996,35.705999999999996,35.795
35.793,35.396,35.108000000000004,35.496,35.714,35.951
35.912,35.349000000000004,35.084,35.626,35.721,36.098
36.032,35.304,35.059,35.773,35.726,36.233000000000004
36.15,35.259,35.033,35.936,35.729,36.355
36.264,35.215,35.008,36.109,35.73,36.463
36.373000000000005,35.171,34.983000000000004,36.291,35.728,36.555
36.476,35.126999999999995,34.959,36.475,35.723,36.633
36.57,35.084,34.935,36.659,35.717,36.696
36.655,35.041,34.91,36.838,35.709,36.746
36.73,34.999,34.885999999999996,37.009,35.699,36.782
36.794000000000004,34.959,34.861,37.168,35.688,36.808
36.847,34.919000000000004,34.836999999999996,37.311,35.677,36.821999999999996
36.891,34.879,34.813,37.438,35.665,36.827
36.926,34.841,34.789,37.545,35.653,36.823
36.952,34.804,34.766,37.632,35.641999999999996,36.81
36.969,34.769,34.743,37.698,35.631,36.79
36.979,34.736,34.72,37.743,35.62,36.764
36.982,34.704,34.698,37.766999999999996,35.611,36.732
36.978,34.673,34.676,37.771,35.602,36.696
36.968,34.645,34.655,37.753,35.594,36.657
36.953,34.62,34.635,37.715,35.586999999999996,36.616
36.934,34.598,34.617,37.656,35.58,36.573
36.912,34.579,34.6,37.579,35.574,36.529
36.885999999999996,34.562,34.585,37.488,35.568000000000005,36.485
36.858000000000004,34.548,34.571999999999996,37.385999999999996,35.562,36.442
36.829,34.536,34.561,37.281,35.556,36.399
36.799,34.527,34.551,37.18,35.55,36.357
36.768,34.521,34.542,37.09,35.543,36.316
36.739000000000004,34.519,34.534,37.02,35.535,36.277
36.709,34.52,34.525999999999996,36.979,35.525999999999996,36.238
36.68,34.524,34.516,36.975,35.516999999999996,36.199
36.650999999999996,34.533,34.505,37.016,35.507,36.161
36.622,34.545,34.493,37.108000000000004,35.495,36.123000000000005
36.593,34.56,34.478,37.259,35.481,36.084
36.565,34.578,34.461,37.47,35.467,36.045
36.537,34.599000000000004,34.443000000000005,37.747,35.452,36.004
36.51,34.62,34.423,38.089,35.437,35.963
36.482,34.641999999999996,34.400999999999996,38.493,35.423,35.921
36.453,34.664,34.378,38.954,35.41,35.878
36.423,34.685,34.355,39.461,35.398,35.835
36.39,34.705,34.332,40.001999999999995,35.387,35.792
36.355,34.724000000000004,34.31,40.562,35.379,35.748000000000005
36.317,34.741,34.29,41.123000000000005,35.371,35.705
36.275999999999996,34.756,34.272,41.667,35.364000000000004,35.662
36.232,34.768,34.256,42.178000000000004,35.357,35.62
36.187,34.777,34.242,42.64,35.35,35.579
36.141999999999996,34.783,34.229,43.038999999999994,35.342,35.539
36.097,34.786,34.216,43.364,35.334,35.499
36.054,34.788000000000004,34.204,43.608000000000004,35.325,35.459
36.012,34.787,34.193000000000005,43.766999999999996,35.314,35.42
35.972,34.783,34.181999999999995,43.838,35.302,35.381
35.934,34.777,34.171,43.825,35.289,35.341
35.898,34.768,34.161,43.731,35.274,35.302
35.865,34.757,34.152,43.565,35.259,35.264
35.835,34.744,34.143,43.333999999999996,35.244,35.228
35.809,34.73,34.134,43.049,35.229,35.195
35.788000000000004,34.715,34.125,42.718,35.214,35.166
35.772,34.698,34.116,42.353,35.199,35.143
35.76,34.679,34.108000000000004,41.963,35.185,35.126
35.751,34.66,34.1,41.56,35.17,35.115
35.746,34.641,34.093,41.153,35.155,35.111999999999995
35.744,34.621,34.089,40.749,35.141,35.116
35.744,34.601,34.088,40.354,35.126999999999995,35.126999999999995
35.748000000000005,34.58,34.092,39.973,35.114000000000004,35.143
35.754,34.559,34.102,39.609,35.103,35.165
35.760999999999996,34.537,34.12,39.260999999999996,35.093,35.191
35.771,34.515,34.146,38.93,35.083,35.22
35.78,34.492,34.181999999999995,38.614000000000004,35.074,35.25
35.79,34.468,34.229,38.311,35.066,35.281
35.799,34.444,34.288000000000004,38.018,35.059,35.312
35.808,34.418,34.361,37.734,35.052,35.34
35.816,34.391999999999996,34.446,37.459,35.045,35.367
35.824,34.364000000000004,34.545,37.191,35.04,35.391999999999996
35.832,34.336,34.658,36.931999999999995,35.034,35.414
35.84,34.308,34.784,36.684,35.028,35.434
35.848,34.279,34.921,36.45,35.022,35.451
35.856,34.249,35.068000000000005,36.233000000000004,35.016,35.465
35.863,34.219,35.222,36.036,35.01,35.476
35.87,34.188,35.381,35.861999999999995,35.005,35.484
35.875,34.158,35.543,35.713,35.0,35.49
35.88,34.126999999999995,35.705999999999996,35.591,34.996,35.493
35.884,34.097,35.869,35.497,34.993,35.494
35.887,34.066,36.03,35.43,34.989000000000004,35.493
35.89,34.034,36.187,35.389,34.986999999999995,35.489000000000004
35.891999999999996,34.001,36.339,35.373000000000005,34.985,35.483000000000004
35.891999999999996,33.967,36.484,35.38,34.984,35.474000000000004
35.89,33.933,36.621,35.408,34.985,35.464
35.885999999999996,33.900999999999996,36.749,35.452,34.986,35.451
35.878,33.87,36.866,35.509,34.986999999999995,35.437
35.867,33.84,36.973,35.578,34.989000000000004,35.421
35.853,33.812,37.068000000000005,35.653,34.991,35.404
35.835,33.785,37.152,35.732,34.994,35.385999999999996
35.816,33.76,37.226,35.813,34.997,35.366
35.795,33.736999999999995,37.29,35.891999999999996,34.999,35.345
35.772,33.717,37.344,35.97,35.001,35.323
35.748000000000005,33.699,37.387,36.043,35.001999999999995,35.301
35.723,33.681,37.421,36.111999999999995,35.001999999999995,35.278
35.696999999999996,33.665,37.446,36.176,35.001,35.256
35.669000000000004,33.65,37.461999999999996,36.235,34.998000000000005,35.234
35.64,33.635,37.469,36.29,34.995,35.211999999999996
35.611,33.619,37.469,36.341,34.992,35.191
35.582,33.603,37.461,36.39,34.989000000000004,35.169000000000004
35.553000000000004,33.585,37.446999999999996,36.435,34.986999999999995,35.148
35.525,33.565,37.427,36.478,34.986,35.128
35.496,33.543,37.402,36.519,34.988,35.107
35.466,33.519,37.371,36.558,34.992,35.086999999999996
35.435,33.495,37.335,36.596,34.998000000000005,35.067
35.402,33.47,37.295,36.634,35.005,35.048
35.369,33.446,37.253,36.671,35.013000000000005,35.029
35.335,33.421,37.208,36.707,35.022,35.010999999999996
35.301,33.398,37.163000000000004,36.743,35.03,34.994
35.269,33.376999999999995,37.117,36.778,35.039,34.976
35.236999999999995,33.358000000000004,37.071999999999996,36.811,35.046,34.958
35.205,33.341,37.029,36.841,35.053000000000004,34.94
35.175,33.326,36.986,36.868,35.058,34.919000000000004
35.146,33.314,36.944,36.891999999999996,35.061,34.897
35.119,33.303000000000004,36.903,36.911,35.062,34.873000000000005
35.094,33.295,36.861999999999995,36.927,35.06,34.848
35.069,33.29,36.821,36.937,35.056,34.823
35.046,33.286,36.779,36.942,35.051,34.797
35.024,33.284,36.736,36.941,35.044000000000004,34.77
35.001999999999995,33.282,36.692,36.933,35.038000000000004,34.744
34.98,33.281,36.647,36.918,35.033,34.719
34.958,33.28,36.601,36.895,35.03,34.693000000000005
34.936,33.28,36.554,36.867,35.03,34.668
34.915,33.279,36.506,36.832,35.033,34.644
34.895,33.279,36.458,36.791,35.04,34.621
34.876999999999995,33.277,36.409,36.747,35.053000000000004,34.599000000000004
34.86,33.275999999999996,36.359,36.7,35.071,34.578
34.845,33.273,36.31,36.653,35.096,34.558
34.832,33.27,36.26,36.604,35.126,34.539
34.821,33.266,36.21,36.556999999999995,35.163000000000004,34.522
34.81,33.260999999999996,36.159,36.510999999999996,35.207,34.505
34.801,33.254,36.109,36.466,35.256,34.489000000000004
34.793,33.246,36.06,36.424,35.31,34.474000000000004
34.786,33.238,36.012,36.385999999999996,35.369,34.46
34.78,33.23,35.966,36.351,35.431999999999995,34.446
34.775,33.222,35.924,36.318000000000005,35.498000000000005,34.433
34.77,33.214,35.885,36.287,35.566,34.419000000000004
34.765,33.205999999999996,35.85,36.257,35.635999999999996,34.405
34.760999999999996,33.196,35.819,36.226,35.704,34.39
34.757,33.187,35.793,36.195,35.772,34.374
34.753,33.179,35.771,36.161,35.839,34.359
34.748000000000005,33.171,35.754,36.126,35.903,34.343
34.744,33.163000000000004,35.743,36.089,35.964,34.327
34.739000000000004,33.155,35.736999999999995,36.049,36.023,34.311
34.733000000000004,33.148,35.736999999999995,36.006,36.077,34.294000000000004
34.727,33.141999999999996,35.742,35.961,36.126,34.278
34.721,33.137,35.751,35.915,36.171,34.262
34.715,33.135,35.763000000000005,35.867,36.211,34.247
34.709,33.135,35.778,35.819,36.245,34.232
34.703,33.14,35.794000000000004,35.771,36.273,34.217
34.696,33.149,35.812,35.724000000000004,36.294000000000004,34.202
34.689,33.165,35.83,35.679,36.309,34.187
34.68,33.188,35.848,35.635999999999996,36.316,34.172
34.67,33.217,35.866,35.596,36.317,34.157
34.659,33.255,35.882,35.56,36.312,34.143
34.646,33.3,35.898,35.528,36.301,34.13
34.633,33.354,35.913000000000004,35.5,36.285,34.117
34.619,33.417,35.927,35.479,36.264,34.106
34.605,33.49,35.942,35.464,36.24,34.096
34.591,33.574,35.955999999999996,35.455999999999996,36.213,34.086999999999996
34.577,33.668,35.969,35.455,36.184,34.078
34.563,33.772,35.981,35.461999999999996,36.153,34.07
34.55,33.885999999999996,35.991,35.477,36.122,34.061
34.538000000000004,34.008,36.0,35.5,36.091,34.051
34.528,34.138000000000005,36.007,35.532,36.062,34.039
34.519,34.274,36.012,35.574,36.034,34.025
34.510999999999996,34.414,36.015,35.626,36.01,34.009
34.504,34.556,36.016999999999996,35.689,35.989000000000004,33.992
34.497,34.696,36.016999999999996,35.763000000000005,35.971,33.975
34.489000000000004,34.833,36.016,35.849000000000004,35.957,33.958
34.481,34.964,36.014,35.948,35.944,33.942
34.473,35.086999999999996,36.010999999999996,36.058,35.934,33.927
34.464,35.202,36.007,36.179,35.925,33.914
34.455999999999996,35.306999999999995,36.001,36.31,35.917,33.904
34.448,35.400999999999996,35.994,36.45,35.909,33.897
34.442,35.481,35.986,36.598,35.900999999999996,33.895
34.439,35.548,35.977,36.751999999999995,35.891999999999996,33.899
34.438,35.602,35.967,36.91,35.883,33.91
34.442,35.641999999999996,35.955999999999996,37.071,35.874,33.929
34.45,35.669000000000004,35.944,37.232,35.864000000000004,33.958
34.463,35.681999999999995,35.93,37.39,35.853,33.998000000000005
34.484,35.683,35.916,37.544000000000004,35.842,34.051
34.512,35.672,35.902,37.69,35.83,34.118
34.548,35.650999999999996,35.887,37.827,35.819,34.2
34.592,35.623000000000005,35.871,37.954,35.808,34.297
34.645,35.588,35.855,38.068000000000005,35.799,34.41
34.707,35.55,35.838,38.169000000000004,35.789,34.538000000000004
34.777,35.508,35.82,38.257,35.78,34.68
34.857,35.466,35.801,38.332,35.771,34.833
34.945,35.423,35.782,38.393,35.763000000000005,34.996
35.041,35.381,35.763000000000005,38.441,35.755,35.165
35.143,35.34,35.743,38.476,35.747,35.339
35.251,35.3,35.724000000000004,38.5,35.739000000000004,35.515
35.36,35.260999999999996,35.704,38.513000000000005,35.732,35.688
35.47,35.223,35.683,38.516,35.724000000000004,35.857
35.579,35.187,35.662,38.51,35.716,36.018
35.684,35.15,35.64,38.498000000000005,35.708,36.168
35.784,35.114000000000004,35.616,38.48,35.701,36.306
35.879,35.076,35.59,38.458,35.696,36.43
35.967,35.038000000000004,35.564,38.434,35.692,36.537
36.047,35.0,35.536,38.407,35.69,36.628
36.118,34.96,35.508,38.379,35.69,36.702
36.18,34.918,35.479,38.35,35.692,36.760999999999996
36.232,34.875,35.449,38.32,35.696,36.803000000000004
36.275,34.83,35.419000000000004,38.289,35.701,36.830999999999996
36.306999999999995,34.785,35.388000000000005,38.257,35.707,36.845
36.330999999999996,34.739000000000004,35.357,38.224000000000004,35.713,36.846
36.346,34.693000000000005,35.326,38.19,35.719,36.835
36.354,34.645,35.296,38.155,35.725,36.814
36.356,34.599000000000004,35.266999999999996,38.119,35.731,36.784
36.351,34.552,35.24,38.080999999999996,35.736,36.748000000000005
36.342,34.507,35.214,38.044000000000004,35.74,36.705999999999996
36.327,34.461999999999996,35.191,38.005,35.744,36.66
36.309,34.419000000000004,35.169000000000004,37.965,35.747,36.61
36.287,34.376,35.147,37.924,35.748000000000005,36.558
36.262,34.335,35.126999999999995,37.882,35.747,36.505
36.236,34.295,35.107,37.839,35.744,36.451
36.208,34.258,35.086999999999996,37.795,35.738,36.397
36.178000000000004,34.222,35.068000000000005,37.75,35.73,36.343
36.148,34.19,35.05,37.704,35.721,36.288000000000004
36.115,34.162,35.033,37.656,35.711,36.235
36.079,34.137,35.016,37.607,35.7,36.183
36.04,34.116,35.0,37.556,35.69,36.132
35.998000000000005,34.099000000000004,34.983000000000004,37.505,35.68,36.084
35.955,34.086,34.966,37.454,35.671,36.038000000000004
35.911,34.077,34.946999999999996,37.403,35.662,35.996
35.867,34.071999999999996,34.928000000000004,37.352,35.654,35.955999999999996
35.824,34.07,34.908,37.302,35.645,35.92
35.78,34.071,34.887,37.251999999999995,35.637,35.887
35.736,34.075,34.867,37.204,35.628,35.856
35.691,34.082,34.847,37.157,35.619,35.827
35.646,34.091,34.829,37.111999999999995,35.609,35.8
35.601,34.103,34.811,37.069,35.599000000000004,35.777
35.555,34.117,34.795,37.028,35.586999999999996,35.755
35.51,34.132,34.781,36.99,35.576,35.736
35.464,34.148,34.768,36.955,35.564,35.719
35.418,34.165,34.757,36.922,35.552,35.703
35.371,34.183,34.747,36.891,35.54,35.688
35.323,34.202,34.741,36.863,35.527,35.673
35.275999999999996,34.222,34.736999999999995,36.836999999999996,35.513000000000005,35.656
35.229,34.241,34.738,36.815,35.499,35.638000000000005
35.186,34.260999999999996,34.742,36.796,35.486,35.618
35.145,34.28,34.751999999999995,36.781,35.472,35.595
35.108000000000004,34.299,34.766999999999996,36.77,35.458,35.569
35.074,34.318000000000005,34.789,36.762,35.443000000000005,35.541
35.045,34.336999999999996,34.818000000000005,36.756,35.429,35.509
35.019,34.354,34.854,36.751,35.415,35.473
34.997,34.369,34.899,36.748000000000005,35.400999999999996,35.435
34.98,34.383,34.952,36.746,35.385999999999996,35.395
34.967,34.394,35.014,36.745,35.372,35.351
34.96,34.404,35.085,36.744,35.358000000000004,35.306999999999995
34.958,34.412,35.167,36.744,35.345,35.263000000000005
34.961999999999996,34.418,35.258,36.744,35.333,35.22
34.97,34.422,35.361,36.744,35.321999999999996,35.178000000000004
34.983000000000004,34.423,35.474000000000004,36.744,35.312,35.139
34.999,34.423,35.597,36.743,35.302,35.103
35.016999999999996,34.421,35.73,36.742,35.293,35.071
35.037,34.418,35.87,36.74,35.284,35.044000000000004
35.059,34.412,36.018,36.738,35.274,35.023
35.083,34.405,36.172,36.735,35.265,35.007
35.108000000000004,34.396,36.329,36.73,35.254,34.999
35.135999999999996,34.385,36.489000000000004,36.725,35.244,34.997
35.166,34.371,36.649,36.718,35.233000000000004,35.004
35.196,34.356,36.809,36.709,35.222,35.016
35.226,34.339,36.966,36.699,35.211,35.035
35.254,34.321,37.12,36.687,35.2,35.059
35.281,34.302,37.269,36.674,35.189,35.086999999999996
35.306999999999995,34.281,37.412,36.659,35.179,35.116
35.329,34.260999999999996,37.545,36.643,35.169000000000004,35.147
35.349000000000004,34.24,37.669000000000004,36.626,35.16,35.177
35.366,34.22,37.783,36.608000000000004,35.150999999999996,35.205999999999996
35.378,34.2,37.885,36.589,35.141999999999996,35.233000000000004
35.387,34.18,37.974000000000004,36.57,35.133,35.258
35.391,34.161,38.052,36.55,35.124,35.28
35.391,34.141,38.117,36.531,35.115,35.299
35.388000000000005,34.12,38.17,36.51,35.106,35.315
35.381,34.099000000000004,38.211999999999996,36.49,35.098,35.329
35.373000000000005,34.078,38.242,36.47,35.091,35.342
35.361999999999995,34.055,38.26,36.45,35.085,35.353
35.35,34.032,38.269,36.43,35.08,35.361999999999995
35.336999999999996,34.008,38.268,36.409,35.075,35.369
35.323,33.982,38.259,36.385999999999996,35.071999999999996,35.375
35.308,33.955,38.241,36.363,35.068000000000005,35.38
35.292,33.928000000000004,38.217,36.338,35.065,35.382
35.275,33.899,38.187,36.311,35.063,35.384
35.258,33.87,38.15,36.284,35.062,35.383
35.241,33.84,38.109,36.257,35.062,35.38
35.223,33.811,38.064,36.229,35.063,35.374
35.204,33.781,38.015,36.201,35.063,35.365
35.184,33.751,37.964,36.172,35.064,35.352
35.163000000000004,33.723,37.911,36.143,35.064,35.336999999999996
35.14,33.695,37.857,36.115,35.063,35.319
35.117,33.668,37.802,36.088,35.062,35.299
35.093,33.644,37.747,36.063,35.061,35.279
35.07,33.621,37.692,36.04,35.058,35.258
35.048,33.6,37.637,36.018,35.055,35.236
35.027,33.580999999999996,37.580999999999996,35.998000000000005,35.052,35.214
35.007,33.563,37.525,35.979,35.048,35.191
34.988,33.547,37.469,35.961,35.043,35.168
34.968,33.531,37.412,35.944,35.038000000000004,35.144
34.949,33.516,37.354,35.925,35.032,35.119
34.929,33.5,37.296,35.907,35.025,35.094
34.911,33.484,37.236999999999995,35.888000000000005,35.018,35.067
34.891999999999996,33.469,37.176,35.867,35.010999999999996,35.039
34.874,33.453,37.113,35.846,35.001999999999995,35.010999999999996
34.856,33.435,37.049,35.823,34.993,34.981
34.838,33.417,36.983000000000004,35.799,34.983000000000004,34.952
34.819,33.397,36.916,35.774,34.972,34.922
34.798,33.376999999999995,36.85,35.748000000000005,34.961,34.891999999999996
34.778,33.357,36.783,35.721,34.949,34.863
34.758,33.338,36.717,35.694,34.937,34.834
34.738,33.32,36.654,35.665,34.926,34.806
34.721,33.304,36.593,35.635,34.916,34.778
34.705999999999996,33.292,36.536,35.604,34.906,34.75
34.693000000000005,33.283,36.483000000000004,35.571999999999996,34.898,34.722
34.681,33.277,36.435,35.54,34.891,34.694
34.672,33.275,36.39,35.507,34.885,34.665
34.663000000000004,33.275999999999996,36.35,35.475,34.881,34.635999999999996
34.656,33.279,36.313,35.444,34.879,34.606
34.649,33.283,36.28,35.414,34.878,34.574
34.643,33.288000000000004,36.25,35.385,34.879,34.542
34.635999999999996,33.293,36.223,35.358000000000004,34.881,34.509
34.628,33.296,36.199,35.332,34.884,34.476
34.618,33.299,36.177,35.308,34.888000000000005,34.443000000000005
34.605,33.3,36.16,35.286,34.894,34.411
34.591,33.299,36.145,35.266999999999996,34.903,34.381
34.576,33.298,36.134,35.249,34.915,34.353
34.559,33.296,36.126999999999995,35.233000000000004,34.931,34.327
34.542,33.293,36.122,35.218,34.952,34.305
34.524,33.288000000000004,36.12,35.205999999999996,34.978,34.285
34.505,33.283,36.12,35.196,35.01,34.266999999999996
34.486,33.277,36.122,35.19,35.047,34.251
34.467,33.272,36.126999999999995,35.188,35.092,34.236999999999995
34.448,33.266999999999996,36.135,35.191,35.144,34.224000000000004
34.43,33.264,36.146,35.201,35.202,34.211
34.413000000000004,33.262,36.161,35.217,35.268,34.2
34.396,33.260999999999996,36.179,35.243,35.339,34.189
34.38,33.260999999999996,36.198,35.278,35.416,34.179
34.365,33.262,36.219,35.324,35.496,34.169000000000004
34.351,33.265,36.241,35.381,35.578,34.158
34.338,33.268,36.263000000000005,35.451,35.661,34.147
34.326,33.272,36.285,35.533,35.742,34.135999999999996
34.314,33.277,36.305,35.626,35.821,34.123000000000005
34.303000000000004,33.283,36.324,35.731,35.895,34.111
34.292,33.289,36.339,35.846,35.965,34.1
34.282,33.295,36.351,35.969,36.028,34.088
34.272,33.302,36.36,36.099000000000004,36.085,34.076
34.262,33.309,36.365,36.233000000000004,36.135,34.065
34.253,33.318000000000005,36.367,36.369,36.178000000000004,34.055
34.245,33.328,36.365,36.505,36.215,34.046
34.238,33.341,36.36,36.639,36.245,34.038000000000004
34.232,33.357,36.354,36.77,36.266999999999996,34.031
34.227,33.38,36.345,36.895,36.283,34.025
34.222,33.409,36.335,37.014,36.292,34.021
34.219,33.446999999999996,36.324,37.125,36.296,34.018
34.217,33.492,36.311,37.227,36.294000000000004,34.015
34.215,33.547,36.297,37.321,36.288000000000004,34.014
34.214,33.611,36.28,37.404,36.279,34.013000000000005
34.214,33.684,36.262,37.478,36.268,34.013000000000005
34.216,33.766999999999996,36.241,37.541,36.254,34.013000000000005
34.219,33.859,36.217,37.593,36.239000000000004,34.014
