Trial 1:0back,Trial 2:2back,Trial 3:3back,Trial 4:2back,Trial 5:3back,Trial 6:0back
37.555,35.468,36.663000000000004,35.423,36.125,36.966
37.488,35.46,36.645,35.429,36.15,36.931
37.422,35.45,36.63,35.436,36.173,36.897
37.356,35.437,36.618,35.443000000000005,36.193000000000005,36.861999999999995
37.291,35.42,36.61,35.451,36.211999999999996,36.827
37.226,35.399,36.606,35.458,36.229,36.792
37.161,35.376,36.606,35.464,36.243,36.756
37.098,35.349000000000004,36.61,35.468,36.255,36.72
37.035,35.32,36.617,35.472,36.266,36.681999999999995
36.974000000000004,35.288000000000004,36.629,35.474000000000004,36.275999999999996,36.644
36.914,35.256,36.645,35.475,36.285,36.605
36.856,35.222,36.665,35.476,36.294000000000004,36.566
36.8,35.19,36.688,35.477,36.304,36.528
36.746,35.158,36.715,35.477,36.315,36.489000000000004
36.695,35.129,36.744,35.476,36.326,36.45
36.645,35.103,36.775,35.475,36.336999999999996,36.412
36.597,35.080999999999996,36.806,35.472,36.348,36.375
36.548,35.063,36.836999999999996,35.469,36.359,36.34
36.5,35.051,36.867,35.465,36.369,36.306999999999995
36.45,35.044000000000004,36.894,35.46,36.378,36.275
36.398,35.041,36.918,35.453,36.384,36.247
36.345,35.042,36.939,35.444,36.388000000000005,36.222
36.289,35.047,36.955,35.434,36.388000000000005,36.2
36.231,35.054,36.967,35.422,36.385,36.183
36.174,35.064,36.975,35.408,36.379,36.17
36.117,35.077,36.979,35.393,36.369,36.161
36.064,35.091,36.98,35.378,36.356,36.157
36.014,35.108000000000004,36.978,35.361,36.342,36.158
35.97,35.126999999999995,36.973,35.345,36.325,36.162
35.931999999999995,35.149,36.967,35.329,36.308,36.17
35.900999999999996,35.173,36.958,35.315,36.292,36.181999999999995
35.878,35.2,36.946,35.303000000000004,36.275999999999996,36.196999999999996
35.863,35.229,36.931999999999995,35.292,36.260999999999996,36.215
35.858000000000004,35.258,36.915,35.282,36.248000000000005,36.236999999999995
35.863,35.287,36.895,35.274,36.236999999999995,36.260999999999996
35.876,35.316,36.872,35.265,36.227,36.289
35.898,35.344,36.848,35.257,36.218,36.318000000000005
35.927,35.37,36.821999999999996,35.248000000000005,36.21,36.349000000000004
35.961999999999996,35.394,36.794000000000004,35.238,36.203,36.381
36.001999999999995,35.416,36.764,35.226,36.196999999999996,36.414
36.046,35.434,36.733000000000004,35.214,36.19,36.445
36.093,35.449,36.7,35.2,36.181999999999995,36.473
36.141999999999996,35.46,36.667,35.185,36.174,36.498000000000005
36.193000000000005,35.466,36.632,35.168,36.164,36.52
36.245,35.467,36.596,35.152,36.153,36.537
36.296,35.461999999999996,36.56,35.134,36.14,36.551
36.346,35.452,36.523,35.116,36.126,36.562
36.393,35.437,36.485,35.098,36.111999999999995,36.57
36.437,35.418,36.446999999999996,35.08,36.097,36.575
36.475,35.395,36.408,35.064,36.083,36.578
36.508,35.37,36.369,35.05,36.071,36.579
36.536,35.344,36.329,35.037,36.06,36.577
36.556999999999995,35.318000000000005,36.288000000000004,35.028,36.051,36.571999999999996
36.571999999999996,35.291,36.248000000000005,35.02,36.045,36.565
36.58,35.264,36.207,35.015,36.041,36.555
36.582,35.236,36.165,35.013000000000005,36.04,36.542
36.577,35.209,36.122,35.012,36.041,36.525999999999996
36.566,35.181,36.079,35.012,36.045,36.507
36.548,35.153,36.036,35.013000000000005,36.051,36.484
36.524,35.125,35.993,35.014,36.059,36.458
36.494,35.097,35.951,35.015,36.07,36.429
36.459,35.07,35.91,35.016,36.083,36.397
36.419000000000004,35.043,35.87,35.016,36.099000000000004,36.361999999999995
36.376999999999995,35.016999999999996,35.830999999999996,35.016999999999996,36.118,36.326
36.330999999999996,34.992,35.794000000000004,35.018,36.139,36.288000000000004
36.284,34.967,35.759,35.019,36.162,36.249
36.236,34.943000000000005,35.726,35.022,36.186,36.209
36.188,34.921,35.694,35.025,36.21,36.17
36.139,34.899,35.662,35.029,36.233000000000004,36.129
36.09,34.879,35.63,35.033,36.254,36.089
36.042,34.86,35.597,35.036,36.27,36.048
35.993,34.843,35.564,35.038000000000004,36.28,36.008
35.943000000000005,34.828,35.532,35.038000000000004,36.284,35.969
35.894,34.816,35.499,35.037,36.28,35.931
35.844,34.805,35.467,35.033,36.266999999999996,35.894
35.795,34.795,35.436,35.029,36.245,35.858000000000004
35.747,34.787,35.407,35.024,36.214,35.823
35.699,34.779,35.379,35.019,36.175,35.789
35.653,34.77,35.353,35.015,36.128,35.756
35.609,34.760999999999996,35.329,35.010999999999996,36.074,35.724000000000004
35.566,34.751,35.306,35.009,36.014,35.694
35.524,34.741,35.287,35.008,35.951,35.664
35.484,34.73,35.271,35.007,35.884,35.635999999999996
35.445,34.719,35.259,35.006,35.815,35.61
35.407,34.709,35.25,35.006,35.744,35.584
35.369,34.7,35.244,35.005,35.674,35.56
35.332,34.691,35.242,35.004,35.604,35.538000000000004
35.295,34.683,35.243,35.003,35.535,35.516
35.257,34.676,35.246,35.001,35.468,35.495
35.219,34.668,35.251,34.998000000000005,35.402,35.475
35.181,34.66,35.258,34.994,35.338,35.455
35.143,34.650999999999996,35.265,34.99,35.275,35.435
35.107,34.643,35.273,34.986,35.215,35.415
35.073,34.635999999999996,35.281,34.981,35.156,35.396
35.041,34.631,35.289,34.977,35.099000000000004,35.378
35.012,34.626999999999995,35.296,34.972,35.045,35.359
34.986999999999995,34.625,35.302,34.968,34.992,35.341
34.964,34.623000000000005,35.306999999999995,34.963,34.94,35.324
34.942,34.621,35.311,34.959,34.891,35.305
34.923,34.619,35.313,34.955,34.844,35.287
34.905,34.616,35.313,34.952,34.799,35.269
34.887,34.611999999999995,35.312,34.949,34.757,35.251
34.871,34.608000000000004,35.309,34.945,34.717,35.233000000000004
34.854,34.604,35.304,34.941,34.68,35.214
34.836999999999996,34.6,35.299,34.935,34.647,35.195
34.821,34.595,35.293,34.928000000000004,34.615,35.177
34.803000000000004,34.591,35.289,34.919000000000004,34.586999999999996,35.16
34.786,34.588,35.285,34.91,34.56,35.144
34.769,34.585,35.282,34.9,34.536,35.13
34.753,34.584,35.279,34.891,34.513000000000005,35.117
34.736999999999995,34.583,35.277,34.882,34.491,35.107
34.722,34.583,35.275,34.874,34.472,35.097
34.708,34.584,35.272,34.867,34.455,35.089
34.694,34.585,35.268,34.863,34.442,35.080999999999996
34.68,34.585,35.262,34.861,34.431999999999995,35.073
34.666,34.586,35.254,34.861,34.426,35.065
34.652,34.586,35.243,34.864000000000004,34.425,35.056999999999995
34.637,34.586999999999996,35.231,34.869,34.428000000000004,35.049
34.62,34.588,35.219,34.876999999999995,34.436,35.041
34.603,34.588,35.208,34.885999999999996,34.446999999999996,35.031
34.585,34.588,35.198,34.896,34.461999999999996,35.021
34.566,34.588,35.191,34.905,34.48,35.01
34.548,34.585,35.185,34.914,34.501,34.998000000000005
34.531,34.582,35.181,34.922,34.525999999999996,34.986
34.515,34.577,35.177,34.929,34.555,34.972
34.5,34.571,35.175,34.933,34.586999999999996,34.958
34.486,34.565,35.173,34.937,34.624,34.944
34.474000000000004,34.559,35.173,34.939,34.665,34.93
34.461999999999996,34.553000000000004,35.173,34.94,34.711,34.916
34.451,34.548,35.173,34.939,34.76,34.903
34.44,34.544000000000004,35.173,34.937,34.813,34.89
34.43,34.54,35.174,34.934,34.867,34.878
34.421,34.536,35.174,34.929,34.924,34.866
34.412,34.533,35.174,34.925,34.982,34.854
34.404,34.529,35.173,34.92,35.038000000000004,34.842
34.395,34.525,35.171,34.917,35.093,34.830999999999996
34.385999999999996,34.52,35.167,34.914,35.143,34.82
34.376999999999995,34.513000000000005,35.161,34.912,35.189,34.809
34.369,34.507,35.152,34.911,35.23,34.796
34.36,34.499,35.141,34.911,35.264,34.782
34.351,34.493,35.128,34.911,35.292,34.766
34.341,34.486,35.111999999999995,34.911,35.313,34.749
34.329,34.481,35.095,34.911,35.327,34.73
34.316,34.477,35.076,34.91,35.336,34.711
34.301,34.474000000000004,35.056999999999995,34.907,35.341,34.693000000000005
34.284,34.472,35.036,34.900999999999996,35.34,34.675
34.266999999999996,34.471,35.015,34.894,35.336999999999996,34.658
34.248000000000005,34.47,34.994,34.885999999999996,35.33,34.643
34.229,34.47,34.973,34.876,35.321,34.628
34.208,34.469,34.953,34.865,35.31,34.614000000000004
34.185,34.469,34.934,34.854,35.298,34.601
34.161,34.47,34.915,34.842,35.285,34.588
34.135999999999996,34.471,34.898,34.830999999999996,35.271,34.575
34.111,34.473,34.881,34.819,35.258,34.562
34.086,34.476,34.864000000000004,34.808,35.245,34.548
34.062,34.478,34.849000000000004,34.797,35.234,34.534
34.04,34.48,34.833,34.786,35.224000000000004,34.518
34.019,34.48,34.816,34.775999999999996,35.217,34.501999999999995
34.0,34.479,34.798,34.768,35.213,34.484
33.982,34.477,34.778,34.76,35.211,34.466
33.965,34.473,34.756,34.753,35.211,34.448
33.946999999999996,34.467,34.731,34.748000000000005,35.214,34.429
33.929,34.461999999999996,34.705,34.746,35.221,34.41
33.911,34.455,34.677,34.747,35.23,34.39
33.891999999999996,34.449,34.648,34.753,35.243,34.371
33.873000000000005,34.442,34.618,34.764,35.259,34.353
33.854,34.435,34.588,34.781,35.279,34.336
33.836,34.427,34.558,34.805,35.303000000000004,34.32
33.817,34.419000000000004,34.529,34.836,35.330999999999996,34.308
33.799,34.41,34.501,34.875,35.364000000000004,34.3
33.782,34.4,34.476,34.923,35.400999999999996,34.296
33.764,34.39,34.452,34.978,35.444,34.299
33.747,34.378,34.431,35.041,35.491,34.311
33.729,34.366,34.411,35.111,35.543,34.333
33.713,34.354,34.391999999999996,35.188,35.599000000000004,34.369
33.699,34.341,34.375,35.271,35.659,34.418
33.689,34.329,34.36,35.358000000000004,35.72,34.484
33.687,34.318000000000005,34.346,35.448,35.784,34.566
33.694,34.309,34.336,35.538000000000004,35.849000000000004,34.665
33.715,34.301,34.328,35.628,35.916,34.78
33.751,34.296,34.324,35.715,35.983000000000004,34.911
33.806999999999995,34.293,34.324,35.797,36.05,35.058
33.885,34.292,34.328,35.874,36.116,35.218
33.986999999999995,34.294000000000004,34.339,35.943000000000005,36.181999999999995,35.39
34.116,34.301,34.359,36.003,36.247,35.571999999999996
34.271,34.314,34.388000000000005,36.055,36.31,35.760999999999996
34.451,34.335,34.429,36.096,36.371,35.953
34.656,34.365,34.483000000000004,36.128,36.43,36.147
34.881,34.407,34.551,36.150999999999996,36.485,36.338
35.124,34.461,34.635999999999996,36.166,36.535,36.523
35.38,34.527,34.736999999999995,36.175,36.580999999999996,36.699
35.644,34.606,34.853,36.178000000000004,36.62,36.865
35.911,34.696999999999996,34.985,36.177,36.653,37.016999999999996
36.178000000000004,34.8,35.13,36.173,36.679,37.155
36.442,34.914,35.288000000000004,36.167,36.696999999999996,37.277
36.699,35.039,35.455999999999996,36.16,36.708,37.384
36.946999999999996,35.174,35.632,36.152,36.71,37.475
37.181999999999995,35.317,35.813,36.144,36.704,37.55
37.404,35.466,35.996,36.135,36.691,37.611
37.609,35.618,36.179,36.126,36.671,37.658
37.797,35.772,36.358000000000004,36.114000000000004,36.645,37.692
37.966,35.922,36.531,36.101,36.614000000000004,37.714
38.114000000000004,36.068000000000005,36.695,36.085,36.579,37.726
38.242,36.205,36.851,36.065,36.54,37.729
38.349000000000004,36.332,36.995,36.043,36.499,37.723
38.435,36.446999999999996,37.128,36.019,36.455999999999996,37.711
38.5,36.549,37.249,35.992,36.412,37.693000000000005
38.545,36.635999999999996,37.357,35.964,36.368,37.67
38.571999999999996,36.707,37.453,35.934,36.324,37.644
38.580999999999996,36.762,37.537,35.904,36.281,37.615
38.576,36.8,37.608000000000004,35.874,36.236,37.583
38.556,36.821999999999996,37.667,35.844,36.191,37.55
38.525,36.828,37.713,35.816,36.143,37.515
38.485,36.818000000000005,37.748000000000005,35.789,36.092,37.479
38.436,36.796,37.773,35.764,36.036,37.443000000000005
38.382,36.760999999999996,37.787,35.74,35.974000000000004,37.405
38.321999999999996,36.715,37.791,35.719,35.905,37.367
38.260999999999996,36.661,37.786,35.698,35.828,37.329
38.198,36.601,37.772,35.679,35.743,37.289
38.134,36.536,37.75,35.66,35.65,37.25
38.071999999999996,36.469,37.721,35.641,35.551,37.211999999999996
38.01,36.400999999999996,37.686,35.622,35.445,37.176
37.949,36.333,37.647,35.601,35.335,37.141999999999996
37.891,36.266999999999996,37.606,35.578,35.221,37.11
37.835,36.203,37.563,35.552,35.105,37.08
37.781,36.141999999999996,37.519,35.525,34.988,37.052
37.73,36.084,37.476,35.494,34.871,37.025
37.681999999999995,36.029,37.434,35.461999999999996,34.756,37.0
37.635,35.978,37.393,35.427,34.643,36.974000000000004
37.589,35.93,37.354,35.389,34.533,36.948
37.545,35.885999999999996,37.318000000000005,35.349000000000004,34.427,36.92
37.501999999999995,35.846,37.285,35.308,34.325,36.89
37.46,35.808,37.254,35.265,34.227,36.858000000000004
37.417,35.773,37.226,35.222,34.134,36.824
37.375,35.74,37.2,35.179,34.046,36.79
37.332,35.708,37.176,35.137,33.963,36.753
37.289,35.678000000000004,37.153,35.097,33.887,36.717
37.247,35.649,37.13,35.058,33.818000000000005,36.679
37.204,35.621,37.107,35.021,33.756,36.643
37.16,35.595,37.083,34.986,33.703,36.608000000000004
37.117,35.57,37.059,34.951,33.658,36.575
37.073,35.547,37.034,34.919000000000004,33.623000000000005,36.545
37.028,35.525,37.008,34.887,33.597,36.52
36.983000000000004,35.501999999999995,36.981,34.857,33.580999999999996,36.498000000000005
36.938,35.479,36.953,34.828,33.575,36.482
36.894,35.454,36.925,34.8,33.577,36.471
36.851,35.428000000000004,36.896,34.774,33.586999999999996,36.466
36.811,35.4,36.867,34.749,33.603,36.467
36.773,35.371,36.836999999999996,34.727,33.625,36.473
36.74,35.342,36.808,34.707,33.65,36.484
36.713,35.312,36.78,34.691,33.678000000000004,36.5
36.693000000000005,35.284,36.755,34.68,33.705999999999996,36.521
36.68,35.257,36.731,34.673,33.734,36.545
36.675,35.231,36.71,34.672,33.760999999999996,36.571999999999996
36.677,35.208,36.693000000000005,34.675,33.785,36.601
36.686,35.185,36.679,34.685,33.808,36.631
36.702,35.164,36.67,34.7,33.829,36.662
36.724000000000004,35.144,36.665,34.72,33.848,36.692
36.751,35.126999999999995,36.665,34.745,33.865,36.721
36.781,35.111999999999995,36.67,34.774,33.883,36.749
36.814,35.1,36.679,34.806,33.900999999999996,36.774
36.846,35.092,36.692,34.841,33.921,36.796
36.878,35.086999999999996,36.708,34.878,33.942,36.817
36.909,35.086,36.727,34.915,33.967,36.834
36.938,35.089,36.748000000000005,34.951,33.994,36.848
36.965,35.094,36.772,34.986,34.025,36.859
36.99,35.104,36.797,35.018,34.058,36.866
37.014,35.116,36.823,35.046,34.094,36.87
37.035,35.132,36.849000000000004,35.069,34.131,36.869
37.052,35.15,36.876,35.086999999999996,34.169000000000004,36.864000000000004
37.067,35.172,36.902,35.1,34.205999999999996,36.854
37.079,35.195,36.926,35.107,34.242,36.84
37.086999999999996,35.221,36.948,35.107,34.275,36.821
37.091,35.247,36.968,35.101,34.306,36.798
37.092,35.274,36.986,35.088,34.332,36.77
37.089,35.301,37.001,35.069,34.355,36.74
37.080999999999996,35.326,37.014,35.043,34.373000000000005,36.708
37.068000000000005,35.35,37.024,35.012,34.385999999999996,36.674
37.05,35.371,37.03,34.977,34.396,36.639
37.024,35.389,37.032,34.94,34.402,36.602
36.993,35.405,37.031,34.905,34.406,36.564
36.955999999999996,35.418,37.025,34.873000000000005,34.407,36.525
36.915,35.428000000000004,37.015,34.848,34.406,36.486
36.869,35.437,37.001,34.830999999999996,34.405,36.446999999999996
36.819,35.444,36.984,34.825,34.403,36.408
36.766,35.449,36.963,34.83,34.4,36.369
36.711999999999996,35.452,36.939,34.848,34.398,36.33
36.655,35.451,36.912,34.879,34.397,36.292
36.598,35.446999999999996,36.882,34.921,34.395,36.254
36.54,35.439,36.851,34.973,34.394,36.216
36.483000000000004,35.426,36.817,35.033,34.393,36.178000000000004
36.427,35.41,36.782,35.097,34.391,36.141
36.373000000000005,35.391999999999996,36.746,35.161,34.387,36.104
36.32,35.371,36.709,35.221,34.382,36.067
36.268,35.348,36.671,35.273,34.374,36.03
36.218,35.323,36.634,35.314,34.364000000000004,35.993
36.17,35.297,36.597,35.342,34.349000000000004,35.955
36.122,35.268,36.56,35.355,34.332,35.917
36.076,35.236999999999995,36.524,35.352,34.312,35.88
36.031,35.204,36.486999999999995,35.335,34.289,35.843
35.986999999999995,35.169000000000004,36.45,35.306,34.266,35.808
35.944,35.133,36.413000000000004,35.266,34.244,35.773
35.900999999999996,35.098,36.375,35.219,34.223,35.74
35.859,35.065,36.336,35.17,34.205999999999996,35.707
35.817,35.034,36.297,35.121,34.194,35.676
35.775999999999996,35.005,36.257,35.077,34.189,35.646
35.736,34.979,36.216,35.04,34.192,35.615
35.698,34.955999999999996,36.175,35.014,34.204,35.585
35.661,34.935,36.134,34.998000000000005,34.227,35.555
35.626999999999995,34.916,36.094,34.995,34.262,35.525999999999996
35.593,34.899,36.054,35.001999999999995,34.309,35.497
35.562,34.883,36.016,35.02,34.367,35.467
35.531,34.868,35.979,35.046,34.438,35.438
35.5,34.854,35.945,35.08,34.52,35.408
35.469,34.841,35.912,35.118,34.614000000000004,35.378
35.439,34.827,35.881,35.159,34.72,35.347
35.41,34.815,35.851,35.202,34.835,35.317
35.381,34.802,35.823,35.244,34.961,35.286
35.352,34.791,35.796,35.285,35.093,35.256
35.323,34.781,35.769,35.321999999999996,35.232,35.226
35.295,34.772,35.744,35.357,35.376,35.196
35.266999999999996,34.763000000000005,35.72,35.388000000000005,35.523,35.166
35.24,34.754,35.696,35.414,35.671,35.135
35.214,34.746,35.674,35.436,35.818000000000005,35.104
35.19,34.738,35.653,35.453,35.963,35.071999999999996
35.166,34.729,35.634,35.465,36.104,35.038000000000004
35.144,34.721,35.616,35.472,36.239000000000004,35.004
35.123000000000005,34.714,35.599000000000004,35.473,36.366,34.969
35.103,34.708,35.582,35.468,36.484,34.934
35.084,34.703,35.567,35.458,36.591,34.9
35.064,34.698,35.552,35.443000000000005,36.686,34.867
35.043,34.694,35.538000000000004,35.427,36.765,34.836
35.022,34.69,35.523,35.41,36.829,34.808
35.001999999999995,34.685,35.507,35.393,36.874,34.782
34.981,34.678000000000004,35.49,35.379,36.899,34.759
34.963,34.671,35.472,35.368,36.904,34.739000000000004
34.945,34.662,35.451,35.361,36.888000000000005,34.721
34.929,34.652,35.429,35.359,36.851,34.705
34.915,34.641,35.407,35.361999999999995,36.793,34.691
34.900999999999996,34.631,35.385,35.369,36.717,34.677
34.888000000000005,34.621,35.361999999999995,35.38,36.624,34.664
34.875,34.614000000000004,35.339,35.396,36.516999999999996,34.650999999999996
34.863,34.61,35.315,35.415,36.399,34.637
34.852,34.609,35.293,35.437,36.273,34.624
34.84,34.61,35.272,35.463,36.141999999999996,34.611
34.828,34.614000000000004,35.253,35.492,36.01,34.598
34.814,34.62,35.236999999999995,35.523,35.88,34.586
34.8,34.626999999999995,35.222,35.558,35.753,34.571999999999996
34.783,34.635999999999996,35.211,35.596,35.633,34.559
34.765,34.645,35.201,35.637,35.52,34.545
34.745,34.654,35.195,35.681999999999995,35.415,34.53
34.726,34.664,35.191,35.729,35.318000000000005,34.516
34.705999999999996,34.673,35.189,35.779,35.23,34.501
34.686,34.681999999999995,35.189,35.83,35.149,34.486
34.668,34.689,35.19,35.88,35.074,34.472
34.65,34.695,35.191,35.929,35.005,34.458
34.634,34.7,35.192,35.975,34.94,34.445
34.618,34.702,35.191,36.016,34.881,34.431999999999995
34.603,34.703,35.188,36.052,34.825,34.42
34.586999999999996,34.703,35.183,36.080999999999996,34.773,34.409
34.571999999999996,34.701,35.174,36.103,34.724000000000004,34.398
34.556,34.7,35.161,36.119,34.677,34.387
34.54,34.698,35.144,36.126999999999995,34.632,34.376999999999995
34.524,34.696999999999996,35.125,36.129,34.586,34.365
34.506,34.696,35.103,36.126,34.539,34.354
34.488,34.696,35.078,36.119,34.489000000000004,34.341
34.468,34.696,35.052,36.108000000000004,34.434,34.328
34.448,34.695,35.024,36.096,34.373000000000005,34.315
34.427,34.694,34.997,36.082,34.305,34.3
34.406,34.692,34.969,36.068000000000005,34.229,34.285
34.385,34.688,34.941,36.052,34.145,34.269
34.363,34.681999999999995,34.913000000000004,36.035,34.052,34.251999999999995
34.342,34.674,34.885,36.016999999999996,33.952,34.234
34.321999999999996,34.664,34.859,35.996,33.844,34.215
34.301,34.653,34.834,35.974000000000004,33.729,34.196
34.28,34.641,34.81,35.948,33.611,34.177
34.258,34.628,34.789,35.918,33.489000000000004,34.158
34.235,34.616,34.769,35.885,33.368,34.14
34.211,34.605,34.751,35.848,33.249,34.121
34.186,34.595,34.735,35.809,33.135999999999996,34.104
34.161,34.585,34.72,35.768,33.034,34.086999999999996
34.135999999999996,34.576,34.707,35.725,32.946,34.071999999999996
34.111,34.567,34.694,35.683,32.876999999999995,34.059
34.086999999999996,34.56,34.681,35.643,32.832,34.048
34.064,34.553000000000004,34.669000000000004,35.605,32.812,34.04
34.041,34.547,34.657,35.571999999999996,32.819,34.033
34.019,34.543,34.645,35.546,32.855,34.029
33.998000000000005,34.541,34.633,35.527,32.917,34.028
33.976,34.54,34.621,35.516999999999996,33.003,34.03
33.955,34.54,34.61,35.516999999999996,33.11,34.037
33.933,34.541,34.598,35.525999999999996,33.232,34.05
33.911,34.542,34.586,35.545,33.364000000000004,34.071
33.888000000000005,34.543,34.574,35.571999999999996,33.499,34.103
33.864000000000004,34.543,34.56,35.607,33.631,34.146
33.839,34.544000000000004,34.546,35.647,33.754,34.204
33.813,34.544000000000004,34.53,35.689,33.864000000000004,34.279
33.787,34.544000000000004,34.513000000000005,35.732,33.958,34.371
33.763000000000005,34.544000000000004,34.496,35.771,34.032,34.482
33.742,34.545,34.479,35.805,34.086,34.61
33.726,34.547,34.461,35.832,34.121,34.757
33.715,34.55,34.443000000000005,35.851,34.139,34.919000000000004
33.711999999999996,34.553000000000004,34.424,35.861,34.144,35.096
33.719,34.556999999999995,34.405,35.861,34.138000000000005,35.284
33.74,34.561,34.385,35.851,34.125,35.481
33.775,34.565,34.366,35.830999999999996,34.108000000000004,35.684
33.828,34.567,34.346,35.802,34.091,35.888000000000005
33.900999999999996,34.568000000000005,34.326,35.765,34.077,36.09
33.994,34.567,34.306999999999995,35.721,34.067,36.287
34.11,34.564,34.287,35.671,34.063,36.475
34.25,34.559,34.268,35.617,34.065,36.653
34.413000000000004,34.553000000000004,34.249,35.562,34.073,36.817
34.599000000000004,34.547,34.23,35.506,34.088,36.967
34.806999999999995,34.54,34.211999999999996,35.451,34.108000000000004,37.1
35.035,34.532,34.196,35.4,34.133,37.217
35.279,34.524,34.181999999999995,35.353,34.161,37.316
35.537,34.516,34.17,35.311,34.191,37.398
35.803000000000004,34.508,34.163000000000004,35.272,34.222,37.464
36.074,34.499,34.161,35.236,34.251999999999995,37.515
36.345,34.49,34.165,35.203,34.28,37.552
36.61,34.48,34.179,35.171,34.305,37.576
36.866,34.472,34.203,35.138000000000005,34.325,37.588
37.109,34.464,34.238,35.103,34.341,37.59
37.335,34.458,34.286,35.065,34.351,37.583
37.544000000000004,34.454,34.347,35.025999999999996,34.356,37.569
37.731,34.452,34.424,34.986,34.358000000000004,37.548
37.896,34.451,34.516999999999996,34.946999999999996,34.355,37.522
38.037,34.45,34.625,34.91,34.35,37.491
38.155,34.451,34.748000000000005,34.878,34.342,37.458
38.249,34.453,34.885999999999996,34.851,34.332,37.422
38.321,34.455999999999996,35.036,34.830999999999996,34.32,37.385
38.372,34.461,35.196999999999996,34.818000000000005,34.306999999999995,37.348
38.403,34.47,35.368,34.812,34.292,37.31
38.417,34.483000000000004,35.546,34.814,34.277,37.272
38.417,34.501999999999995,35.728,34.823,34.26,37.233000000000004
38.403,34.528,35.914,34.838,34.242,37.194
38.38,34.565,36.1,34.858000000000004,34.223,37.156
38.347,34.611999999999995,36.284,34.882,34.203,37.117
38.308,34.672,36.464,34.909,34.183,37.079
38.263000000000005,34.744,36.638000000000005,34.937,34.164,37.041
38.213,34.83,36.804,34.965,34.145,37.003
38.16,34.929,36.961,34.994,34.126999999999995,36.966
38.104,35.039,37.106,35.022,34.111999999999995,36.93
38.046,35.161,37.239000000000004,35.049,34.098,36.896
37.986999999999995,35.294000000000004,37.357,35.076,34.088,36.864000000000004
37.927,35.434,37.459,35.104,34.08,36.833
37.866,35.582,37.545,35.132,34.075,36.803000000000004
37.805,35.734,37.616,35.161,34.073,36.774
37.746,35.887,37.673,35.193000000000005,34.075,36.746
37.688,36.039,37.717,35.226,34.08,36.717
37.632,36.187,37.749,35.263000000000005,34.086999999999996,36.689
37.578,36.329,37.77,35.301,34.097,36.66
37.527,36.461,37.781,35.342,34.107,36.629
37.478,36.583,37.784,35.385,34.118,36.597
37.431999999999995,36.692,37.78,35.429,34.129,36.563
37.389,36.789,37.77,35.475,34.139,36.527
37.347,36.872,37.755,35.522,34.149,36.49
37.308,36.94,37.735,35.57,34.158,36.453
37.269,36.994,37.711,35.619,34.166,36.415
37.232,37.033,37.683,35.667,34.173,36.376999999999995
37.194,37.058,37.652,35.715,34.178000000000004,36.34
37.155,37.068000000000005,37.619,35.760999999999996,34.183,36.304
37.114000000000004,37.065,37.583,35.805,34.188,36.271
37.07,37.049,37.546,35.846,34.192,36.241
37.023,37.021,37.509,35.884,34.196,36.214
36.974000000000004,36.985,37.472,35.917,34.202,36.192
36.921,36.94,37.435,35.945,34.208,36.175
36.866,36.889,37.4,35.969,34.218,36.164
36.808,36.832,37.366,35.986999999999995,34.229,36.158
36.751,36.77,37.334,36.0,34.245,36.158
36.694,36.705,37.302,36.008,34.264,36.164
36.639,36.635999999999996,37.271,36.010999999999996,34.287,36.175
36.588,36.565,37.24,36.008,34.314,36.191
36.541,36.493,37.209,36.001,34.344,36.21
36.501,36.421,37.179,35.988,34.376999999999995,36.232
36.466,36.352,37.150999999999996,35.97,34.412,36.256
36.439,36.286,37.124,35.946999999999996,34.449,36.282
36.418,36.224000000000004,37.098,35.919000000000004,34.486,36.308
36.405,36.167,37.073,35.887,34.523,36.335
36.398,36.116,37.049,35.851,34.559,36.361999999999995
36.398,36.071,37.025999999999996,35.811,34.593,36.389
36.404,36.03,37.003,35.768,34.625,36.414
36.415,35.995,36.98,35.723,34.654,36.439
36.429,35.965,36.955999999999996,35.677,34.679,36.461999999999996
36.448,35.94,36.931999999999995,35.63,34.7,36.483000000000004
36.47,35.919000000000004,36.907,35.583,34.717,36.501999999999995
36.494,35.902,36.881,35.537,34.728,36.518
36.52,35.887,36.855,35.49,34.735,36.529
36.548,35.875,36.829,35.445,34.738,36.536
36.577,35.864000000000004,36.803000000000004,35.402,34.736999999999995,36.537
36.606,35.853,36.777,35.361,34.732,36.533
36.635,35.842,36.751999999999995,35.323,34.726,36.524
36.662,35.83,36.73,35.287,34.717,36.51
36.688,35.817,36.709,35.253,34.708,36.49
36.711999999999996,35.802,36.691,35.222,34.696999999999996,36.467
36.732,35.786,36.678000000000004,35.194,34.687,36.441
36.748000000000005,35.768,36.668,35.168,34.676,36.413000000000004
36.759,35.748000000000005,36.663000000000004,35.145,34.666,36.384
36.765,35.728,36.663000000000004,35.126,34.657,36.353
36.765,35.705999999999996,36.668,35.109,34.649,36.321
36.759,35.684,36.677,35.095,34.643,36.286
36.746,35.663000000000004,36.691,35.084,34.639,36.249
36.727,35.641999999999996,36.709,35.076,34.638000000000005,36.211
36.703,35.622,36.73,35.07,34.64,36.173
36.673,35.605,36.751999999999995,35.068000000000005,34.645,36.134
36.639,35.59,36.775999999999996,35.068000000000005,34.655,36.095
36.601,35.578,36.801,35.07,34.67,36.055
36.56,35.569,36.825,35.075,34.691,36.015
36.516999999999996,35.564,36.85,35.080999999999996,34.719,35.975
36.471,35.56,36.872,35.09,34.754,35.934
36.424,35.559,36.893,35.1,34.796,35.894
36.375,35.56,36.911,35.111,34.846,35.852
36.326,35.563,36.926,35.122,34.904,35.811
36.275,35.566,36.937,35.134,34.968,35.77
36.224000000000004,35.571,36.945,35.145,35.037,35.729
36.172,35.576,36.95,35.157,35.11,35.688
36.119,35.583,36.951,35.168,35.185,35.649
36.065,35.591,36.948,35.178000000000004,35.26,35.609
36.009,35.602,36.943000000000005,35.188,35.334,35.571
35.953,35.615,36.934,35.196,35.404,35.534
35.896,35.631,36.922,35.202,35.469,35.498000000000005
35.839,35.649,36.907,35.207,35.528,35.464
35.782,35.668,36.888000000000005,35.208,35.58,35.431999999999995
35.726,35.687,36.865,35.207,35.624,35.4
35.672,35.705999999999996,36.84,35.203,35.658,35.37
35.62,35.724000000000004,36.813,35.196999999999996,35.684,35.34
35.57,35.739000000000004,36.783,35.188,35.701,35.311
35.521,35.751,36.751999999999995,35.176,35.709,35.283
35.475,35.76,36.718,35.162,35.71,35.255
35.429,35.765,36.681999999999995,35.145,35.703,35.227
35.385,35.765,36.646,35.126,35.689,35.198
35.343,35.76,36.608000000000004,35.105,35.67,35.17
35.301,35.749,36.569,35.082,35.645,35.141
35.259,35.732,36.53,35.06,35.616,35.114000000000004
35.218,35.709,36.489000000000004,35.037,35.583,35.086999999999996
35.177,35.681999999999995,36.448,35.014,35.548,35.061
35.137,35.649,36.406,34.991,35.512,35.036
35.098,35.611,36.364000000000004,34.968,35.474000000000004,35.012
35.059,35.569,36.321999999999996,34.946999999999996,35.436,34.988
35.022,35.524,36.279,34.928000000000004,35.398,34.965
34.985,35.476,36.236,34.911,35.36,34.944
34.95,35.427,36.191,34.895,35.324,34.923
34.917,35.376999999999995,36.147,34.881,35.289,34.903
34.885,35.328,36.102,34.869,35.255,34.885
34.855,35.28,36.056999999999995,34.859,35.223,34.868
34.827,35.236,36.013000000000005,34.851,35.194,34.852
34.801,35.196,35.97,34.844,35.166,34.838
34.777,35.163000000000004,35.929,34.838,35.139,34.825
34.755,35.137,35.889,34.834,35.115,34.814
34.733000000000004,35.119,35.85,34.830999999999996,35.093,34.803000000000004
34.714,35.108000000000004,35.813,34.829,35.073,34.794000000000004
34.695,35.104,35.775999999999996,34.828,35.055,34.786
34.678000000000004,35.107,35.741,34.828,35.038000000000004,34.777
34.661,35.115,35.705999999999996,34.828,35.023,34.769
34.646,35.125,35.673,34.829,35.009,34.760999999999996
34.631,35.138000000000005,35.641999999999996,34.832,34.997,34.751999999999995
34.617,35.15,35.613,34.836999999999996,34.984,34.742
34.603,35.161,35.586,34.844,34.972,34.732
34.589,35.169000000000004,35.559,34.852,34.96,34.721
34.574,35.171,35.534,34.861999999999995,34.946999999999996,34.709
34.559,35.165,35.509,34.872,34.931999999999995,34.696999999999996
34.543,35.148,35.484,34.882,34.916,34.684
34.525,35.12,35.459,34.891,34.897,34.671
34.506,35.08,35.433,34.899,34.876999999999995,34.658
34.484,35.029,35.404,34.905,34.855,34.645
34.461,34.966,35.375,34.909,34.832,34.633
34.437,34.895,35.343,34.911,34.808,34.62
34.414,34.817,35.309,34.912,34.784,34.606
34.391,34.738,35.275,34.912,34.760999999999996,34.592
34.371,34.661,35.241,34.912,34.739000000000004,34.576
34.354,34.59,35.208,34.912,34.718,34.559
34.339,34.53,35.175,34.912,34.7,34.54
34.327,34.484,35.144,34.913000000000004,34.685,34.521
34.316,34.453,35.111999999999995,34.915,34.672,34.501
34.306999999999995,34.438,35.082,34.918,34.663000000000004,34.481
34.298,34.438,35.052,34.922,34.656,34.461999999999996
34.29,34.452,35.023,34.926,34.653,34.442
34.28,34.477,34.995,34.93,34.652,34.424
34.27,34.509,34.968,34.933,34.655,34.406
34.258,34.547,34.942,34.935,34.659,34.388000000000005
34.244,34.586999999999996,34.916,34.936,34.666,34.371
34.228,34.628,34.891,34.936,34.676,34.353
34.211,34.668,34.867,34.934,34.688,34.336
34.192,34.705999999999996,34.842,34.931,34.703,34.319
34.172,34.741,34.818000000000005,34.925,34.719,34.302
34.153,34.772,34.793,34.917,34.738,34.286
34.133,34.799,34.768,34.908,34.758,34.27
34.113,34.82,34.742,34.896,34.78,34.255
34.093,34.836999999999996,34.716,34.883,34.803000000000004,34.241
34.071999999999996,34.849000000000004,34.689,34.869,34.826,34.227
34.051,34.857,34.661,34.855,34.85,34.214
34.028,34.864000000000004,34.634,34.842,34.874,34.201
34.005,34.869,34.607,34.83,34.9,34.189
33.98,34.876,34.58,34.821,34.926,34.176
33.954,34.885,34.554,34.816,34.953,34.163000000000004
33.927,34.898,34.528,34.817,34.98,34.15
33.9,34.915,34.501999999999995,34.825,35.007,34.137
33.873000000000005,34.936,34.476,34.841,35.032,34.124
33.846,34.961,34.45,34.867,35.056999999999995,34.109
33.819,34.991,34.424,34.903,35.079,34.094
33.793,35.025,34.397,34.95,35.101,34.078
33.768,35.063,34.37,35.008,35.122,34.061
33.744,35.105,34.343,35.078,35.141999999999996,34.044000000000004
33.72,35.149,34.316,35.158,35.161,34.027
33.696999999999996,35.196,34.29,35.249,35.179,34.01
33.674,35.245,34.264,35.349000000000004,35.195,33.994
33.652,35.294000000000004,34.239000000000004,35.455,35.209,33.978
33.629,35.343,34.216,35.566,35.221,33.961999999999996
33.607,35.391999999999996,34.194,35.679,35.231,33.946
33.586,35.441,34.175,35.792,35.238,33.931999999999995
33.566,35.489000000000004,34.157,35.903,35.243,33.919000000000004
33.548,35.536,34.141,36.010999999999996,35.245,33.908
33.531,35.582,34.128,36.111999999999995,35.245,33.9
33.516,35.626,34.118,36.205999999999996,35.245,33.897
33.503,35.667,34.11,36.29,35.242,33.900999999999996
33.491,35.707,34.105,36.364000000000004,35.239000000000004,33.914
33.479,35.745,34.102,36.426,35.235,33.937
33.467,35.78,34.101,36.475,35.231,33.973
33.453,35.812,34.102,36.51,35.225,34.022
33.437,35.841,34.105,36.533,35.217,34.086
33.419000000000004,35.866,34.108000000000004,36.543,35.208,34.165
33.399,35.887,34.113,36.542,35.198,34.260999999999996
33.376,35.903,34.117,36.531,35.186,34.374
33.352,35.915,34.122,36.51,35.173,34.503
33.328,35.922,34.126,36.482,35.159,34.648
33.303000000000004,35.927,34.128,36.446999999999996,35.144,34.806
33.278,35.928000000000004,34.129,36.406,35.128,34.977
33.254,35.929,34.129,36.361,35.111,35.157
33.23,35.928000000000004,34.126,36.314,35.093,35.344
33.207,35.927,34.122,36.264,35.075,35.535
33.184,35.927,34.118,36.215,35.056999999999995,35.727
33.162,35.927,34.111999999999995,36.165,35.038000000000004,35.917
33.139,35.929,34.106,36.116,35.019,36.102
33.115,35.934,34.099000000000004,36.067,35.0,36.278
33.09,35.942,34.092,36.02,34.981,36.444
33.065,35.954,34.084,35.973,34.963,36.597
33.04,35.969,34.076,35.927,34.946,36.735
33.016,35.986999999999995,34.067,35.883,34.928000000000004,36.856
32.994,36.006,34.058,35.84,34.912,36.961
32.974000000000004,36.025999999999996,34.047,35.8,34.897,37.049
32.959,36.044000000000004,34.035,35.763000000000005,34.882,37.12
32.949,36.058,34.023,35.729,34.868,37.174
32.946999999999996,36.066,34.010999999999996,35.699,34.856,37.214
32.953,36.065,33.999,35.674,34.845,37.238
32.969,36.055,33.989000000000004,35.653,34.835,37.25
32.998000000000005,36.034,33.98,35.637,34.826,37.249
33.04,36.001,33.975,35.625,34.818000000000005,37.239000000000004
33.097,35.958,33.973,35.617,34.812,37.219
33.173,35.905,33.977,35.613,34.806999999999995,37.192
33.268,35.844,33.988,35.611999999999995,34.803000000000004,37.159
33.383,35.775999999999996,34.008,35.615,34.801,37.123000000000005
33.521,35.703,34.038000000000004,35.62,34.8,37.084
33.681,35.629,34.079,35.628,34.802,37.043
33.863,35.555,34.134,35.639,34.805,37.001
34.065,35.484,34.205,35.652,34.81,36.959
34.286,35.417,34.29,35.667,34.816,36.916
34.521,35.356,34.393,35.681,34.824,36.873000000000005
34.766999999999996,35.302,34.513000000000005,35.695,34.834,36.829
35.019,35.255,34.65,35.707,34.844,36.784
35.274,35.214,34.802,35.716,34.856,36.74
35.527,35.18,34.969,35.721,34.868,36.696
35.775,35.152,35.149,35.722,34.882,36.652
36.013000000000005,35.129,35.338,35.719,34.897,36.609
36.24,35.109,35.536,35.713,34.912,36.566
36.451,35.093,35.738,35.704,34.929,36.524
36.645,35.077,35.941,35.691,34.946999999999996,36.483000000000004
36.818000000000005,35.062,36.143,35.675,34.966,36.442
36.969,35.044000000000004,36.34,35.657,34.986,36.400999999999996
37.097,35.024,36.53,35.638000000000005,35.006,36.36
37.203,35.001,36.711,35.617,35.025999999999996,36.319
37.286,34.973,36.883,35.596,35.046,36.278
37.348,34.942,37.042,35.575,35.066,36.238
37.389,34.906,37.188,35.555,35.086999999999996,36.196999999999996
37.412,34.866,37.319,35.535,35.108000000000004,36.155
37.418,34.823,37.436,35.518,35.132,36.114000000000004
37.409,34.777,37.536,35.503,35.158,36.071999999999996
37.385,34.731,37.621,35.49,35.187,36.031
37.35,34.686,37.689,35.479,35.221,35.989000000000004
37.305,34.644,37.743,35.471,35.260999999999996,35.948
37.251,34.608000000000004,37.782,35.466,35.306999999999995,35.908
37.19,34.578,37.808,35.463,35.359,35.868
37.124,34.556999999999995,37.823,35.463,35.418,35.829
37.056,34.545,37.826,35.464,35.482,35.793
36.986,34.542,37.82,35.468,35.551,35.759
36.917,34.549,37.805,35.473,35.623000000000005,35.727
36.848,34.565,37.783,35.48,35.696999999999996,35.699
36.78,34.59,37.754,35.486999999999995,35.77,35.673
36.715,34.626,37.721,35.493,35.841,35.652
36.650999999999996,34.67,37.683,35.499,35.909,35.635999999999996
36.591,34.723,37.641999999999996,35.504,35.973,35.624
36.533,34.784,37.598,35.509,36.032,35.618
36.479,34.85,37.554,35.512,36.085,35.617
36.428000000000004,34.92,37.508,35.515,36.131,35.622
36.381,34.992,37.461999999999996,35.516999999999996,36.169000000000004,35.633
36.336999999999996,35.064,37.417,35.516999999999996,36.199,35.649
36.295,35.133,37.372,35.516,36.221,35.67
36.255,35.198,37.329,35.514,36.234,35.696
36.216,35.256,37.289,35.510999999999996,36.239000000000004,35.726
36.177,35.306999999999995,37.25,35.506,36.236999999999995,35.76
36.14,35.35,37.215,35.5,36.226,35.797
36.101,35.383,37.181999999999995,35.493,36.209,35.835
36.062,35.408,37.152,35.486,36.185,35.872
36.02,35.426,37.124,35.478,36.155,35.908
35.976,35.436,37.1,35.47,36.119,35.942
35.929,35.442,37.078,35.461,36.078,35.972
35.879,35.442,37.058,35.452,36.034,35.999
35.827,35.438,37.04,35.443000000000005,35.986,36.021
35.774,35.43,37.023,35.434,35.935,36.039
35.722,35.419000000000004,37.005,35.425,35.883,36.052
35.669000000000004,35.404,36.986999999999995,35.416,35.83,36.059
35.619,35.385999999999996,36.967,35.406,35.778,36.062
35.57,35.365,36.946,35.398,35.727,36.06
35.523,35.344,36.923,35.389,35.677,36.052
35.48,35.321,36.896,35.38,35.63,36.04
35.44,35.299,36.866,35.371,35.586,36.024
35.405,35.278,36.833,35.361,35.544000000000004,36.004
35.375,35.259,36.797,35.351,35.506,35.982
35.351,35.242,36.758,35.339,35.469,35.957
35.332,35.228,36.719,35.326,35.435,35.93
35.318000000000005,35.216,36.679,35.31,35.403,35.900999999999996
35.311,35.207,36.641999999999996,35.29,35.372,35.871
35.311,35.2,36.606,35.266999999999996,35.344,35.839
35.317,35.196999999999996,36.574,35.24,35.316,35.805
35.329,35.196,36.545,35.21,35.29,35.77
35.348,35.196999999999996,36.52,35.179,35.265,35.733000000000004
35.372,35.201,36.499,35.146,35.24,35.695
35.402,35.207,36.483000000000004,35.113,35.215,35.655
35.435,35.214,36.471,35.082,35.191,35.615
35.472,35.222,36.463,35.052,35.167,35.573
35.510999999999996,35.231,36.458,35.025,35.143,35.532
35.551,35.24,36.455,35.001,35.119,35.489000000000004
35.59,35.247,36.454,34.979,35.096,35.446
35.628,35.251999999999995,36.455,34.961,35.074,35.403
35.663000000000004,35.255,36.457,34.946,35.052,35.36
35.695,35.255,36.458,34.933,35.031,35.318000000000005
35.723,35.251999999999995,36.46,34.923,35.012,35.277
35.746,35.244,36.459,34.914,34.995,35.235
35.764,35.232,36.457,34.905,34.98,35.194
35.777,35.216,36.452,34.897,34.968,35.153
35.784,35.195,36.444,34.89,34.958,35.11
35.786,35.171,36.431999999999995,34.882,34.951,35.068000000000005
35.783,35.141999999999996,36.415,34.875,34.948,35.025
35.775,35.109,36.391999999999996,34.868,34.948,34.984
35.762,35.074,36.361999999999995,34.861,34.951,34.942
35.743,35.036,36.325,34.854,34.958,34.902
35.719,34.998000000000005,36.28,34.849000000000004,34.967,34.863
35.691,34.961,36.226,34.844,34.979,34.826
35.658,34.926,36.164,34.841,34.993,34.789
35.622,34.897,36.093,34.84,35.008,34.753
35.580999999999996,34.874,36.015,34.841,35.024,34.718
35.538000000000004,34.859,35.928000000000004,34.844,35.041,34.685
35.492,34.852,35.834,34.849000000000004,35.058,34.652
35.443000000000005,34.853,35.731,34.855,35.074,34.621
35.391,34.861999999999995,35.622,34.861999999999995,35.09,34.59
35.339,34.878,35.506,34.87,35.105,34.561
35.284,34.902,35.385,34.879,35.119,34.532
35.229,34.931999999999995,35.262,34.889,35.134,34.503
35.172,34.967,35.139,34.898,35.148,34.474000000000004
35.116,35.006,35.02,34.907,35.162,34.445
35.06,35.048,34.907,34.916,35.177,34.414
35.005,35.093,34.803000000000004,34.925,35.192,34.382
34.951,35.139,34.711,34.931999999999995,35.209,34.349000000000004
34.899,35.185,34.633,34.939,35.226,34.315
34.849000000000004,35.23,34.571,34.944,35.243,34.281
34.801,35.273,34.524,34.95,35.26,34.246
34.756,35.312,34.494,34.954,35.275999999999996,34.211999999999996
34.714,35.349000000000004,34.479,34.958,35.292,34.18
34.675,35.381,34.479,34.961999999999996,35.306,34.148
34.639,35.409,34.493,34.965,35.319,34.119
34.606,35.433,34.518,34.966,35.329,34.092
34.577,35.453,34.554,34.967,35.336,34.068000000000005
34.55,35.468,34.597,34.966,35.34,34.046
34.525,35.48,34.644,34.964,35.341,34.025999999999996
34.501999999999995,35.489000000000004,34.694,34.961999999999996,35.339,34.009
34.48,35.493,34.744,34.96,35.333,33.993
34.46,35.494,34.791,34.958,35.325,33.98
34.44,35.491,34.834,34.955999999999996,35.315,33.967
34.422,35.485,34.872,34.955,35.302,33.955999999999996
34.403,35.476,34.904,34.955999999999996,35.287,33.946
34.383,35.463,34.928000000000004,34.957,35.271,33.936
34.363,35.446999999999996,34.946,34.959,35.251999999999995,33.928000000000004
34.341,35.428000000000004,34.957,34.961,35.232,33.919000000000004
34.317,35.408,34.963,34.963,35.21,33.911
34.293,35.387,34.966,34.964,35.188,33.902
34.266999999999996,35.366,34.967,34.965,35.165,33.894
34.242,35.344,34.968,34.964,35.141,33.885
34.216,35.323,34.971,34.96,35.117,33.876999999999995
34.192,35.304,34.976,34.955,35.094,33.868
34.169000000000004,35.285,34.986,34.946,35.071,33.859
34.148,35.266999999999996,35.0,34.935,35.048,33.85
34.129,35.25,35.018,34.922,35.025999999999996,33.841
34.111,35.234,35.042,34.906,35.004,33.832
34.094,35.218,35.07,34.89,34.983000000000004,33.821999999999996
34.079,35.201,35.101,34.874,34.961999999999996,33.812
34.064,35.184,35.135,34.859,34.944,33.801
34.05,35.164,35.169000000000004,34.845,34.929,33.79
34.037,35.143,35.202,34.834,34.917,33.778
34.025,35.118,35.232,34.827,34.909,33.766
34.013000000000005,35.091,35.258,34.824,34.905,33.755
34.001,35.061,35.28,34.825,34.904,33.743
33.989000000000004,35.029,35.297,34.83,34.907,33.732
33.976,34.996,35.306,34.84,34.913000000000004,33.721
33.963,34.964,35.31,34.854,34.92,33.71
33.948,34.931999999999995,35.308,34.874,34.93,33.7
33.934,34.902,35.302,34.898,34.941,33.69
33.92,34.873000000000005,35.295,34.928000000000004,34.952,33.681
33.907,34.847,35.289,34.963,34.964,33.671
33.894,34.823,35.284,35.004,34.976,33.662
33.882,34.8,35.282,35.053000000000004,34.986999999999995,33.653
33.871,34.78,35.285,35.11,34.998000000000005,33.643
33.861,34.76,35.29,35.175,35.008,33.632
33.851,34.742,35.298,35.248000000000005,35.016999999999996,33.62
33.842,34.725,35.306999999999995,35.33,35.025,33.608000000000004
33.833,34.709,35.314,35.418,35.032,33.595
33.825,34.694,35.318000000000005,35.510999999999996,35.039,33.582
33.816,34.681,35.315,35.608000000000004,35.045,33.568000000000005
33.806999999999995,34.67,35.305,35.705999999999996,35.051,33.554
33.796,34.66,35.286,35.804,35.056999999999995,33.54
33.786,34.653,35.259,35.9,35.062,33.525
33.774,34.649,35.225,35.991,35.067,33.51
33.762,34.646,35.186,36.076,35.071,33.494
33.749,34.646,35.147,36.155,35.075,33.476
33.734,34.648,35.11,36.224000000000004,35.078,33.458
33.718,34.652,35.08,36.284,35.080999999999996,33.439
33.702,34.658,35.056999999999995,36.334,35.083,33.419000000000004
33.684,34.665,35.046,36.373000000000005,35.084,33.399
33.665,34.674,35.045,36.402,35.086,33.379
33.646,34.683,35.056,36.42,35.088,33.359
33.626999999999995,34.694,35.076,36.428000000000004,35.091,33.338
33.609,34.705999999999996,35.103,36.426,35.095,33.318000000000005
33.592,34.718,35.132,36.415,35.101,33.297
33.576,34.729,35.161,36.395,35.108000000000004,33.277
33.562,34.74,35.186,36.368,35.115,33.258
33.55,34.75,35.203,36.336,35.123000000000005,33.243
33.54,34.758,35.211,36.298,35.13,33.232
33.531,34.764,35.205999999999996,36.257,35.138000000000005,33.228
33.524,34.769,35.189,36.214,35.145,33.231
33.516999999999996,34.774,35.157,36.169000000000004,35.152,33.244
33.510999999999996,34.777,35.111999999999995,36.124,35.158,33.266999999999996
33.504,34.779,35.054,36.079,35.164,33.304
33.496,34.779,34.984,36.037,35.17,33.355
33.486,34.777,34.905,35.997,35.177,33.421
33.475,34.772,34.819,35.96,35.184,33.504
33.463,34.764,34.727,35.928000000000004,35.194,33.604
33.45,34.753,34.632,35.900999999999996,35.205999999999996,33.721
33.437,34.742,34.535,35.878,35.222,33.853
33.423,34.73,34.44,35.859,35.242,34.0
33.408,34.72,34.349000000000004,35.844,35.268,34.16
33.394,34.711999999999996,34.263000000000005,35.832,35.301,34.332
33.378,34.707,34.185,35.823,35.342,34.513000000000005
33.363,34.705,34.116,35.815,35.391,34.698
33.346,34.705999999999996,34.056999999999995,35.808,35.448,34.885999999999996
33.329,34.71,34.01,35.802,35.513000000000005,35.073
33.311,34.716,33.974000000000004,35.795,35.585,35.255
33.293,34.722,33.951,35.786,35.665,35.429
33.274,34.728,33.94,35.775,35.75,35.595
33.255,34.732,33.939,35.763000000000005,35.839,35.749
33.236,34.733000000000004,33.946999999999996,35.748000000000005,35.93,35.891
33.218,34.732,33.963,35.731,36.021,36.018
33.201,34.729,33.984,35.713,36.111999999999995,36.129
33.186,34.724000000000004,34.007,35.692,36.198,36.225
33.173,34.719,34.031,35.67,36.28,36.306
33.161,34.714,34.054,35.646,36.354,36.371
33.150999999999996,34.711,34.074,35.621,36.42,36.422
33.141999999999996,34.709,34.089,35.595,36.476,36.459
33.133,34.709,34.098,35.567,36.522,36.484
33.125,34.711,34.101,35.537,36.558,36.498000000000005
33.117,34.713,34.095,35.507,36.580999999999996,36.5
33.109,34.715,34.083,35.477,36.593,36.493
33.099000000000004,34.716,34.066,35.446999999999996,36.594,36.478
33.089,34.717,34.045,35.418,36.583,36.454
33.078,34.717,34.022,35.389,36.562,36.425
33.067,34.717,33.999,35.363,36.532,36.39
33.054,34.718,33.98,35.339,36.494,36.351
33.041,34.719,33.966,35.317,36.45,36.309
33.028,34.721,33.961,35.3,36.400999999999996,36.265
33.015,34.724000000000004,33.967,35.286,36.348,36.221
33.001,34.729,33.986999999999995,35.275999999999996,36.293,36.176
32.986,34.736,34.023,35.27,36.236999999999995,36.133
32.972,34.745,34.076,35.268,36.18,36.092
32.955999999999996,34.754,34.149,35.268,36.124,36.052
32.941,34.765,34.24,35.271,36.069,36.014
32.925,34.777,34.35,35.275,36.014,35.979
32.91,34.789,34.477,35.28,35.961,35.945
32.895,34.801,34.621,35.286,35.911,35.913000000000004
32.882,34.812,34.777,35.292,35.863,35.883
32.871,34.821999999999996,34.945,35.298,35.818000000000005,35.855
32.863,34.832,35.12,35.302,35.775999999999996,35.827
32.861,34.842,35.301,35.306,35.738,35.8
32.866,34.853,35.483000000000004,35.309,35.702,35.774
32.881,34.866,35.664,35.31,35.668,35.747
32.908,34.883,35.842,35.309,35.638000000000005,35.72
32.949,34.905,36.014,35.308,35.609,35.692
33.007,34.935,36.178000000000004,35.306,35.582,35.662
33.083,34.973,36.333,35.304,35.556999999999995,35.632
33.177,35.021,36.478,35.301,35.532,35.601
33.291,35.08,36.61,35.299,35.509,35.569
33.425,35.152,36.729,35.297,35.486,35.536
33.578,35.236999999999995,36.834,35.295,35.465,35.503
33.749,35.334,36.925,35.292,35.444,35.469
33.938,35.445,37.001,35.287,35.423,35.436
34.141999999999996,35.57,37.063,35.282,35.403,35.403
34.357,35.707,37.111999999999995,35.274,35.384,35.371
34.580999999999996,35.857,37.149,35.266,35.366,35.34
34.81,36.018,37.172,35.256,35.347,35.31
35.039,36.189,37.184,35.246,35.33,35.283
35.266,36.368,37.185,35.235,35.313,35.259
35.486,36.551,37.175,35.225,35.298,35.236999999999995
35.695,36.735,37.157,35.214,35.283,35.219
35.891999999999996,36.918,37.131,35.203,35.27,35.205999999999996
36.071999999999996,37.096,37.099000000000004,35.192,35.259,35.196
36.234,37.266999999999996,37.062,35.181,35.249,35.191
36.376999999999995,37.427,37.02,35.17,35.241,35.189
36.499,37.576,36.976,35.159,35.236,35.191
36.599000000000004,37.71,36.93,35.146,35.233000000000004,35.196999999999996
36.678000000000004,37.829,36.882,35.133,35.232,35.205
36.735,37.931,36.833,35.118,35.234,35.217
36.772,38.014,36.785,35.101,35.239000000000004,35.233000000000004
36.789,38.077,36.736,35.083,35.245,35.251999999999995
36.788000000000004,38.12,36.688,35.064,35.254,35.275
36.772,38.141999999999996,36.641999999999996,35.046,35.264,35.301
36.742,38.143,36.597,35.028,35.275999999999996,35.330999999999996
36.7,38.125,36.554,35.010999999999996,35.289,35.363
36.649,38.089,36.512,34.996,35.302,35.397
36.59,38.037,36.473,34.984,35.315,35.431999999999995
36.525,37.969,36.436,34.974000000000004,35.329,35.467
36.455,37.889,36.400999999999996,34.968,35.343,35.501999999999995
36.381,37.798,36.368,34.964,35.357,35.535
36.304,37.698,36.336,34.963,35.37,35.565
36.225,37.59,36.304,34.964,35.383,35.591
36.146,37.476,36.272,34.966,35.395,35.613
36.067,37.358000000000004,36.239000000000004,34.971,35.407,35.63
35.989000000000004,37.236999999999995,36.205999999999996,34.977,35.417,35.641999999999996
35.914,37.114000000000004,36.171,34.984,35.425,35.65
35.841,36.993,36.134,34.993,35.433,35.654
35.772,36.873000000000005,36.095,35.003,35.438,35.653
35.708,36.759,36.054,35.014,35.442,35.65
35.648,36.649,36.010999999999996,35.027,35.443000000000005,35.643
35.592,36.545,35.967,35.04,35.443000000000005,35.635
35.54,36.448,35.922,35.054,35.441,35.625
35.492,36.358000000000004,35.876999999999995,35.068000000000005,35.436,35.613
35.448,36.275,35.832,35.082,35.43,35.6
35.407,36.2,35.788000000000004,35.095,35.421,35.585
35.368,36.132,35.745,35.108000000000004,35.409,35.568000000000005
35.33,36.071999999999996,35.705,35.12,35.395,35.549
35.292,36.019,35.668,35.13,35.379,35.527
35.253,35.974000000000004,35.635999999999996,35.138000000000005,35.361999999999995,35.503
35.213,35.936,35.61,35.144,35.342,35.476
35.17,35.902,35.589,35.147,35.321,35.446
35.124,35.871,35.575,35.148,35.299,35.414
35.076,35.842,35.568000000000005,35.148,35.275999999999996,35.38
35.025,35.812,35.568000000000005,35.147,35.251999999999995,35.345
34.973,35.781,35.577,35.145,35.228,35.306999999999995
34.92,35.746,35.594,35.143,35.204,35.269
34.867,35.709,35.619,35.141,35.18,35.231
34.815,35.669000000000004,35.653,35.138000000000005,35.157,35.194
34.766999999999996,35.626,35.694,35.135999999999996,35.134,35.157
34.723,35.58,35.74,35.133,35.113,35.121
34.684,35.533,35.791,35.13,35.092,35.086
34.652,35.484,35.845,35.126999999999995,35.071999999999996,35.05
34.626,35.434,35.900999999999996,35.123000000000005,35.053000000000004,35.015
34.608000000000004,35.383,35.957,35.12,35.036,34.981
34.597,35.333,36.010999999999996,35.116,35.021,34.946999999999996
34.593,35.285,36.062,35.114000000000004,35.009,34.916
34.597,35.239000000000004,36.109,35.111999999999995,34.998000000000005,34.885999999999996
34.606,35.196999999999996,36.15,35.111999999999995,34.99,34.859
34.622,35.16,36.185,35.113,34.983000000000004,34.834
34.644,35.129,36.213,35.116,34.977,34.813
34.671,35.104,36.234,35.121,34.972,34.793
34.703,35.086999999999996,36.246,35.128,34.969,34.777
34.74,35.077,36.25,35.138000000000005,34.965,34.762
34.78,35.075,36.247,35.149,34.963,34.749
34.825,35.08,36.236,35.16,34.96,34.736
34.872,35.091,36.218,35.171,34.958,34.725
34.921,35.109,36.192,35.179,34.957,34.713
34.972,35.13,36.159,35.185,34.958,34.7
35.023,35.155,36.12,35.186,34.959,34.688
35.073,35.181999999999995,36.076,35.181,34.961999999999996,34.675
35.121,35.211,36.028,35.17,34.967,34.662
35.165,35.242,35.978,35.153,34.974000000000004,34.649
35.205,35.273,35.926,35.128,34.984,34.635
35.24,35.306,35.873000000000005,35.096,34.996,34.623000000000005
35.268,35.34,35.82,35.058,35.010999999999996,34.61
35.29,35.374,35.768,35.016,35.028,34.598
35.305,35.408,35.718,34.969,35.046,34.588
35.312,35.442,35.669000000000004,34.918,35.067,34.578
35.313,35.475,35.622,34.866,35.088,34.569
35.306999999999995,35.507,35.578,34.813,35.109,34.561
35.294000000000004,35.539,35.536,34.76,35.131,34.555
35.274,35.569,35.496,34.708,35.152,34.548
35.249,35.598,35.457,34.659,35.172,34.54
35.218,35.625,35.42,34.613,35.191,34.532
35.183,35.65,35.385,34.571,35.209,34.522
35.146,35.671,35.353,34.534,35.224000000000004,34.512
35.105,35.689,35.323,34.501999999999995,35.238,34.5
35.063,35.702,35.296,34.476,35.249,34.488
35.019,35.711,35.272,34.455,35.258,34.475
34.973,35.715,35.25,34.44,35.265,34.461
34.927,35.715,35.231,34.431,35.27,34.449
34.88,35.711,35.214,34.428000000000004,35.273,34.436
34.833,35.703,35.198,34.431,35.275999999999996,34.424
34.787,35.692,35.181,34.441,35.278,34.414
34.742,35.678000000000004,35.163000000000004,34.458,35.279,34.404
34.698,35.66,35.141999999999996,34.483000000000004,35.281,34.395
34.654,35.64,35.118,34.515,35.282,34.387
34.611999999999995,35.616,35.09,34.554,35.283,34.381
34.57,35.59,35.059,34.6,35.284,34.376
34.529,35.561,35.024,34.650999999999996,35.286,34.373000000000005
34.49,35.529,34.984,34.708,35.287,34.37
34.453,35.496,34.941,34.77,35.287,34.367
34.417,35.459,34.895,34.838,35.287,34.365
34.383,35.421,34.847,34.909,35.286,34.361
34.351,35.381,34.798,34.985,35.284,34.357
34.32,35.34,34.748000000000005,35.063,35.281,34.351
34.29,35.298,34.699,35.141999999999996,35.275999999999996,34.343
34.260999999999996,35.256,34.652,35.222,35.271,34.334
34.233000000000004,35.213,34.605,35.301,35.265,34.323
34.205999999999996,35.171,34.56,35.38,35.26,34.309
34.179,35.13,34.518,35.458,35.256,34.295
34.154,35.091,34.478,35.536,35.254,34.279
34.131,35.055,34.441,35.611999999999995,35.256,34.262
34.11,35.021,34.406,35.685,35.263000000000005,34.247
34.091,34.99,34.375,35.755,35.275999999999996,34.233000000000004
34.074,34.961999999999996,34.346,35.819,35.298,34.219
34.059,34.937,34.32,35.876999999999995,35.329,34.208
34.045,34.917,34.296,35.927,35.369,34.196999999999996
34.032,34.899,34.275,35.967,35.42,34.188
34.02,34.884,34.255,35.996,35.482,34.179
34.008,34.871,34.239000000000004,36.012,35.554,34.171
33.996,34.858000000000004,34.224000000000004,36.016,35.634,34.162
33.984,34.846,34.211,36.007,35.721,34.154
33.973,34.833,34.199,35.986999999999995,35.813,34.146
33.963,34.819,34.189,35.955999999999996,35.906,34.138000000000005
33.953,34.803000000000004,34.179,35.917,35.998000000000005,34.129
33.945,34.785,34.169000000000004,35.871,36.086999999999996,34.119
33.937,34.765,34.158,35.821,36.17,34.107
33.931999999999995,34.743,34.147,35.769,36.245,34.093
33.928000000000004,34.719,34.135999999999996,35.719,36.312,34.077
33.927,34.694,34.123000000000005,35.671,36.369,34.06
33.927,34.668,34.108000000000004,35.629,36.416,34.041
33.928000000000004,34.641,34.092,35.592,36.451,34.021
33.929,34.615,34.075,35.563,36.475,33.999
33.93,34.59,34.056999999999995,35.542,36.486999999999995,33.976
33.93,34.567,34.038000000000004,35.529,36.486999999999995,33.952
33.928000000000004,34.546,34.018,35.525999999999996,36.476,33.927
33.924,34.528,33.996,35.534,36.455999999999996,33.902
33.918,34.514,33.973,35.551,36.426,33.876
33.912,34.503,33.949,35.58,36.389,33.851
33.904,34.495,33.924,35.62,36.345,33.827
33.898,34.491,33.898,35.671,36.297,33.803000000000004
33.893,34.489000000000004,33.872,35.735,36.244,33.781
33.889,34.491,33.844,35.81,36.189,33.760999999999996
33.888000000000005,34.494,33.817,35.895,36.133,33.743
33.887,34.499,33.79,35.989000000000004,36.077,33.727
33.887,34.506,33.763000000000005,36.091,36.021,33.715
33.887,34.513000000000005,33.736999999999995,36.199,35.967,33.705
33.888000000000005,34.521,33.711,36.311,35.915,33.7
33.889,34.53,33.686,36.425,35.865,33.7
33.888000000000005,34.539,33.661,36.54,35.818000000000005,33.705999999999996
33.887,34.548,33.638000000000005,36.652,35.774,33.718
33.883,34.558,33.615,36.759,35.733000000000004,33.739000000000004
33.878,34.567,33.592,36.861,35.694,33.768
33.871,34.576,33.571,36.955,35.658,33.808
33.861999999999995,34.584,33.549,37.04,35.624,33.86
33.853,34.592,33.528,37.116,35.594,33.924
33.845,34.598,33.506,37.181999999999995,35.565,34.001999999999995
33.838,34.603,33.483000000000004,37.238,35.539,34.093
33.833,34.606,33.46,37.285,35.515,34.198
33.828,34.607,33.437,37.323,35.493,34.317
33.825,34.608000000000004,33.414,37.354,35.473,34.45
33.821999999999996,34.607,33.391,37.378,35.454,34.594
33.82,34.606,33.37,37.396,35.436,34.748000000000005
33.818000000000005,34.605,33.35,37.41,35.419000000000004,34.911
33.816,34.604,33.330999999999996,37.418,35.402,35.078
33.813,34.605,33.313,37.423,35.385,35.249
33.809,34.606,33.296,37.422,35.368,35.419000000000004
33.803000000000004,34.608000000000004,33.282,37.417,35.351,35.586999999999996
33.794000000000004,34.611999999999995,33.27,37.407,35.333,35.747
33.784,34.616,33.259,37.39,35.314,35.899
33.771,34.62,33.251999999999995,37.367,35.294000000000004,36.038000000000004
33.756,34.624,33.247,37.336999999999996,35.273,36.164
33.741,34.628,33.244,37.299,35.251999999999995,36.275999999999996
33.724000000000004,34.632,33.243,37.255,35.23,36.372
33.708,34.634,33.243,37.205,35.207,36.453
33.691,34.635999999999996,33.244,37.149,35.185,36.518
33.676,34.637,33.247,37.088,35.164,36.568000000000005
33.661,34.637,33.25,37.022,35.145,36.606
33.647,34.635999999999996,33.255,36.953,35.129,36.632
33.635,34.634,33.260999999999996,36.883,35.116,36.647
33.624,34.63,33.268,36.81,35.106,36.653
33.614000000000004,34.624,33.279,36.738,35.099000000000004,36.652
33.605,34.617,33.294000000000004,36.666,35.094,36.643
33.598,34.608000000000004,33.314,36.593,35.092,36.626999999999995
33.592,34.599000000000004,33.34,36.522,35.092,36.606
33.586999999999996,34.589,33.375,36.451,35.094,36.58
33.584,34.579,33.418,36.382,35.098,36.549
33.580999999999996,34.57,33.472,36.315,35.103,36.515
33.578,34.562,33.537,36.249,35.111,36.476
33.576,34.556,33.614000000000004,36.186,35.121,36.434
33.574,34.552,33.702,36.125,35.132,36.39
33.571,34.551,33.802,36.067,35.145,36.344
33.568000000000005,34.551,33.911,36.012,35.158,36.297
33.563,34.554,34.03,35.961,35.171,36.251
33.556999999999995,34.56,34.156,35.915,35.184,36.204
33.549,34.569,34.288000000000004,35.873000000000005,35.196,36.158
33.541,34.584,34.424,35.835,35.207,36.111999999999995
33.53,34.605,34.562,35.8,35.217,36.067
33.518,34.635999999999996,34.699,35.769,35.226,36.023
33.504,34.676,34.835,35.741,35.234,35.981
33.489000000000004,34.729,34.965,35.716,35.242,35.94
33.473,34.794000000000004,35.089,35.694,35.248000000000005,35.9
33.457,34.873000000000005,35.203,35.676,35.254,35.863
33.442,34.965,35.306999999999995,35.661,35.258,35.827
33.429,35.07,35.4,35.648,35.260999999999996,35.793
33.417,35.187,35.482,35.635999999999996,35.263000000000005,35.759
33.407,35.314,35.551,35.626,35.264,35.726
33.398,35.45,35.609,35.615,35.263000000000005,35.694
33.389,35.593,35.656,35.603,35.26,35.661
33.38,35.74,35.692,35.589,35.256,35.628
33.371,35.889,35.72,35.574,35.25,35.594
33.361,36.037,35.738,35.555,35.243,35.558
33.35,36.181,35.75,35.533,35.234,35.522
33.338,36.318000000000005,35.755,35.506,35.223,35.484
33.326,36.445,35.757,35.473,35.211,35.446
33.313,36.56,35.754,35.435,35.196999999999996,35.407
33.3,36.662,35.748000000000005,35.391999999999996,35.181999999999995,35.369
33.287,36.75,35.739000000000004,35.344,35.166,35.332
33.274,36.823,35.726,35.292,35.149,35.297
33.262,36.882,35.71,35.239000000000004,35.131,35.264
33.251,36.926,35.691,35.185,35.111999999999995,35.233000000000004
33.24,36.957,35.667,35.131,35.092,35.205999999999996
33.23,36.974000000000004,35.64,35.078,35.071,35.181
33.22,36.979,35.607,35.025999999999996,35.049,35.16
33.211999999999996,36.973,35.57,34.976,35.027,35.143
33.204,36.955999999999996,35.529,34.927,35.004,35.129
33.198,36.929,35.485,34.876999999999995,34.98,35.119
33.194,36.895,35.437,34.826,34.957,35.111999999999995
33.192,36.853,35.385999999999996,34.772,34.935,35.109
33.194,36.806,35.335,34.716,34.913000000000004,35.108000000000004
33.203,36.754,35.282,34.655,34.891999999999996,35.11
33.22,36.699,35.229,34.59,34.873000000000005,35.114000000000004
33.248000000000005,36.641,35.178000000000004,34.522,34.856,35.121
33.29,36.58,35.126999999999995,34.451,34.842,35.13
33.349000000000004,36.519,35.078,34.381,34.829,35.141
33.428000000000004,36.455,35.03,34.312,34.819,35.155
33.528,36.391,34.984,34.249,34.812,35.171
33.65,36.327,34.94,34.195,34.806999999999995,35.188
33.796,36.263000000000005,34.896,34.150999999999996,34.805,35.207
33.963,36.2,34.854,34.119,34.804,35.227
34.15,36.139,34.812,34.102,34.805,35.246
34.355,36.079,34.772,34.1,34.808,35.265
34.575,36.022,34.734,34.113,34.811,35.282
34.805,35.968,34.698,34.139,34.815,35.298
35.043,35.918,34.664,34.177,34.818000000000005,35.312
35.283,35.871,34.632,34.222,34.82,35.323
35.523,35.829,34.603,34.274,34.821999999999996,35.33
35.758,35.791,34.577,34.327,34.821,35.332
35.985,35.756,34.555,34.381,34.819,35.33
36.2,35.726,34.537,34.431999999999995,34.815,35.323
36.400999999999996,35.699,34.522,34.478,34.809,35.311
36.586,35.675,34.510999999999996,34.518,34.801,35.293
36.751,35.654,34.504,34.552,34.791,35.272
36.896,35.635,34.501999999999995,34.579,34.781,35.247
37.019,35.617,34.504,34.6,34.769,35.218
37.121,35.599000000000004,34.510999999999996,34.614000000000004,34.758,35.187
37.2,35.582,34.522,34.623000000000005,34.747,35.153
37.259,35.564,34.538000000000004,34.626999999999995,34.736999999999995,35.118
37.297,35.546,34.558,34.628,34.727,35.083
37.317,35.525,34.580999999999996,34.626,34.719,35.048
37.318000000000005,35.503,34.608000000000004,34.622,34.711,35.014
37.304,35.479,34.638000000000005,34.616,34.705,34.981
37.275,35.453,34.671,34.607,34.7,34.949
37.234,35.427,34.705999999999996,34.595,34.696999999999996,34.917
37.183,35.4,34.745,34.58,34.695,34.885999999999996
37.122,35.374,34.784,34.561,34.695,34.855
37.053000000000004,35.35,34.824,34.539,34.695,34.823
36.979,35.328,34.861999999999995,34.514,34.696999999999996,34.792
36.900999999999996,35.309,34.896,34.486999999999995,34.7,34.760999999999996
36.821,35.294000000000004,34.925,34.458,34.704,34.729
36.741,35.281,34.946999999999996,34.429,34.71,34.698
36.663000000000004,35.273,34.961999999999996,34.400999999999996,34.716,34.667
36.586999999999996,35.266999999999996,34.969,34.375,34.725,34.637
36.515,35.266,34.968,34.352,34.734,34.607
36.446999999999996,35.268,34.96,34.333,34.744,34.577
36.384,35.272,34.945,34.319,34.754,34.547
36.325,35.279,34.925,34.312,34.764,34.518
36.27,35.288000000000004,34.899,34.311,34.774,34.488
36.221,35.3,34.868,34.318000000000005,34.783,34.459
36.177,35.314,34.834,34.333,34.79,34.43
36.137,35.329,34.798,34.356,34.796,34.400999999999996
36.101,35.346,34.760999999999996,34.385,34.8,34.372
36.069,35.365,34.724000000000004,34.422,34.804,34.345
36.038000000000004,35.385,34.687,34.466,34.806,34.318000000000005
36.009,35.404,34.652,34.515,34.806999999999995,34.294000000000004
35.982,35.423,34.618,34.57,34.808,34.271
35.954,35.44,34.586,34.63,34.809,34.25
35.926,35.455999999999996,34.554,34.696,34.812,34.231
35.898,35.469,34.524,34.768,34.817,34.214
35.868,35.481,34.493,34.848,34.827,34.199
35.836999999999996,35.491,34.463,34.936,34.842,34.185
35.804,35.499,34.431999999999995,35.032,34.865,34.173
35.769,35.505,34.400999999999996,35.135,34.896,34.16
35.731,35.509,34.369,35.244,34.937,34.147
35.69,35.509,34.336999999999996,35.357,34.99,34.133
35.645,35.506,34.305,35.473,35.053000000000004,34.118
35.597,35.5,34.274,35.59,35.126999999999995,34.103
35.546,35.489000000000004,34.244,35.705999999999996,35.211,34.086999999999996
35.494,35.474000000000004,34.215,35.819,35.303000000000004,34.07
35.44,35.455999999999996,34.188,35.928000000000004,35.402,34.052
35.385,35.435,34.163000000000004,36.03,35.505,34.033
35.330999999999996,35.412,34.14,36.124,35.61,34.015
35.278,35.387,34.122,36.21,35.715,33.997
35.227,35.361,34.106,36.286,35.818000000000005,33.98
35.18,35.334,34.095,36.352,35.917,33.965
35.138000000000005,35.306999999999995,34.086999999999996,36.407,36.009,33.951
35.103,35.28,34.083,36.449,36.093,33.939
35.075,35.251999999999995,34.083,36.479,36.167,33.929
35.056999999999995,35.224000000000004,34.086999999999996,36.498000000000005,36.228,33.921
35.047,35.196,34.093,36.506,36.278,33.913000000000004
35.046,35.168,34.102,36.504,36.313,33.906
35.053000000000004,35.14,34.111999999999995,36.492,36.336,33.899
35.069,35.111999999999995,34.124,36.473,36.346,33.891
35.092,35.084,34.137,36.445,36.344,33.881
35.122,35.056,34.149,36.41,36.33,33.869
35.158,35.029,34.161,36.367,36.306999999999995,33.856
35.198,35.001,34.173,36.317,36.275999999999996,33.841
35.241,34.974000000000004,34.184,36.260999999999996,36.238,33.825
35.285,34.946999999999996,34.195,36.199,36.194,33.81
35.328,34.921,34.205,36.131,36.146,33.794000000000004
35.369,34.894,34.215,36.056999999999995,36.095,33.779
35.406,34.869,34.224000000000004,35.977,36.043,33.765
35.439,34.844,34.233000000000004,35.89,35.991,33.75
35.467,34.82,34.243,35.799,35.939,33.735
35.49,34.797,34.251,35.703,35.89,33.721
35.507,34.774,34.259,35.604,35.845,33.707
35.518,34.753,34.265,35.503,35.802,33.694
35.522,34.733000000000004,34.27,35.403,35.763000000000005,33.681
35.519,34.715,34.272,35.305,35.727,33.67
35.509,34.696,34.271,35.211999999999996,35.694,33.661
35.493,34.678000000000004,34.266999999999996,35.125,35.664,33.652
35.47,34.66,34.260999999999996,35.046,35.638000000000005,33.644
35.441,34.64,34.251999999999995,34.976,35.614000000000004,33.638000000000005
35.406,34.621,34.24,34.917,35.592,33.632
35.366,34.6,34.227,34.869,35.573,33.626
35.321,34.58,34.211,34.830999999999996,35.555,33.621
35.273,34.561,34.193000000000005,34.804,35.539,33.615
35.221,34.542,34.174,34.787,35.524,33.61
35.167,34.525,34.152,34.777,35.51,33.603
35.111999999999995,34.51,34.129,34.775,35.496,33.596
35.056999999999995,34.496,34.105,34.778,35.483000000000004,33.588
35.001999999999995,34.484,34.08,34.785,35.47,33.578
34.95,34.474000000000004,34.056,34.795,35.457,33.567
34.9,34.465,34.031,34.805,35.444,33.554
34.852,34.457,34.008,34.816,35.43,33.539
34.806999999999995,34.451,33.986,34.825,35.416,33.524
34.763000000000005,34.445,33.966,34.834,35.4,33.508
34.721,34.439,33.946999999999996,34.841,35.384,33.492
34.68,34.435,33.93,34.848,35.366,33.476
34.64,34.43,33.914,34.854,35.347,33.46
34.599000000000004,34.426,33.899,34.86,35.328,33.444
34.556,34.421,33.885999999999996,34.866,35.308,33.43
34.510999999999996,34.416,33.873000000000005,34.874,35.287,33.418
34.463,34.41,33.861999999999995,34.885,35.268,33.408
34.412,34.403,33.851,34.897,35.249,33.4
34.358000000000004,34.395,33.841,34.911,35.231,33.394
34.302,34.387,33.83,34.927,35.215,33.389
34.245,34.379,33.82,34.945,35.201,33.385999999999996
34.188,34.371,33.809,34.964,35.189,33.383
34.132,34.364000000000004,33.797,34.983000000000004,35.18,33.381
34.078,34.358000000000004,33.785,35.003,35.173,33.376999999999995
34.025999999999996,34.353,33.773,35.022,35.169000000000004,33.373000000000005
33.978,34.349000000000004,33.760999999999996,35.041,35.169000000000004,33.367
33.933,34.346,33.748000000000005,35.059,35.171,33.36
33.893,34.342,33.736,35.075,35.177,33.351
33.856,34.336999999999996,33.724000000000004,35.089,35.186,33.341
33.823,34.33,33.713,35.1,35.198,33.329
33.792,34.321999999999996,33.704,35.109,35.211999999999996,33.316
33.765,34.311,33.696,35.114000000000004,35.227,33.302
33.739000000000004,34.3,33.69,35.116,35.244,33.287
33.713,34.287,33.685,35.113,35.260999999999996,33.272
33.687,34.274,33.681,35.106,35.279,33.259
33.661,34.260999999999996,33.679,35.093,35.296,33.249
33.633,34.248000000000005,33.677,35.076,35.313,33.243
33.604,34.236,33.676,35.055,35.328,33.242
33.574,34.226,33.676,35.03,35.343,33.249
33.54,34.217,33.675,35.004,35.357,33.263000000000005
33.504,34.209,33.674,34.979,35.369,33.286
33.465,34.202,33.674,34.957,35.379,33.321
33.422,34.196,33.675,34.941,35.385999999999996,33.368
33.375,34.189,33.677,34.931999999999995,35.391999999999996,33.428000000000004
33.323,34.181999999999995,33.679,34.934,35.395,33.504
33.266,34.174,33.681999999999995,34.949,35.398,33.596
33.205,34.165,33.685,34.976,35.4,33.705
33.14,34.154,33.688,35.016,35.400999999999996,33.83
33.073,34.143,33.69,35.068000000000005,35.400999999999996,33.972
33.004,34.13,33.69,35.13,35.4,34.128
32.935,34.117,33.691,35.202,35.398,34.296
32.866,34.104,33.69,35.281,35.394,34.472
32.801,34.091,33.689,35.364000000000004,35.389,34.653
32.739000000000004,34.078,33.687,35.45,35.381,34.836
32.681,34.065,33.685,35.535,35.371,35.018
32.629,34.052,33.683,35.618,35.359,35.195
32.580999999999996,34.041,33.681,35.696999999999996,35.346,35.366
32.539,34.031,33.68,35.77,35.33,35.527
32.499,34.022,33.679,35.835,35.314,35.677
32.463,34.015,33.679,35.891,35.295,35.814
32.428000000000004,34.010999999999996,33.678000000000004,35.936,35.275,35.936
32.393,34.01,33.678000000000004,35.969,35.254,36.042
32.357,34.01,33.679,35.991,35.232,36.133
32.32,34.013000000000005,33.681,36.0,35.209,36.205999999999996
32.281,34.016999999999996,33.687,35.999,35.186,36.265
32.24,34.023,33.696999999999996,35.986999999999995,35.163000000000004,36.309
32.196999999999996,34.029,33.714,35.966,35.14,36.339
32.153,34.036,33.736999999999995,35.938,35.118,36.357
32.108000000000004,34.042,33.77,35.903,35.097,36.364000000000004
32.063,34.048,33.814,35.863,35.077,36.361
32.019,34.052,33.87,35.819,35.058,36.35
31.975,34.056,33.939,35.773,35.04,36.330999999999996
31.932,34.061,34.021,35.725,35.024,36.305
31.891,34.065,34.115,35.677,35.009,36.273
31.851999999999997,34.07,34.22,35.629,34.995,36.236999999999995
31.815,34.077,34.335,35.58,34.984,36.196999999999996
31.781999999999996,34.088,34.458,35.531,34.974000000000004,36.153
31.753,34.102,34.59,35.483000000000004,34.967,36.107
31.726999999999997,34.123000000000005,34.727,35.436,34.961999999999996,36.06
31.705,34.150999999999996,34.868,35.391,34.958,36.010999999999996
31.686,34.187,35.009,35.348,34.957,35.963
31.671,34.233000000000004,35.148,35.309,34.955999999999996,35.914
31.658,34.287,35.283,35.275,34.957,35.867
31.647,34.35,35.411,35.246,34.957,35.82
31.636999999999997,34.422,35.531,35.225,34.958,35.774
31.628,34.501,35.641,35.211999999999996,34.959,35.731
31.619,34.588,35.739000000000004,35.207,34.96,35.689
31.61,34.68,35.823,35.21,34.961,35.648
31.601999999999997,34.778,35.894,35.222,34.961999999999996,35.61
31.593000000000004,34.88,35.949,35.241,34.963,35.574
31.584,34.984,35.989000000000004,35.266,34.963,35.539
31.574,35.088,36.014,35.298,34.964,35.507
31.564,35.192,36.024,35.333,34.964,35.476
31.555,35.292,36.02,35.371,34.963,35.445
31.548000000000002,35.385999999999996,36.003,35.41,34.963,35.415
31.541999999999998,35.472,35.976,35.449,34.961999999999996,35.385999999999996
31.539,35.549,35.938,35.485,34.961,35.355
31.538,35.615,35.891999999999996,35.519,34.959,35.325
31.539,35.669000000000004,35.84,35.547,34.958,35.293
31.541999999999998,35.711,35.782,35.571,34.957,35.260999999999996
31.546999999999997,35.741,35.721,35.588,34.955999999999996,35.227
31.553,35.759,35.658,35.598,34.955,35.192
31.561,35.765,35.594,35.602,34.955,35.156
31.57,35.760999999999996,35.53,35.6,34.955,35.117
31.58,35.747,35.467,35.592,34.955999999999996,35.078
31.592,35.726,35.408,35.579,34.957,35.037
31.605,35.699,35.353,35.561,34.959,34.995
31.621,35.668,35.301,35.541,34.961,34.952
31.638,35.635,35.254,35.519,34.963,34.91
31.66,35.603,35.21,35.496,34.966,34.867
31.685,35.574,35.17,35.473,34.969,34.824
31.715,35.549,35.135,35.45,34.972,34.783
31.75,35.529,35.103,35.429,34.974000000000004,34.745
31.79,35.514,35.074,35.409,34.975,34.708
31.835,35.505,35.047,35.393,34.975,34.675
31.883000000000003,35.503,35.022,35.379,34.975,34.646
31.935,35.507,34.999,35.369,34.976,34.622
31.99,35.518,34.976,35.361999999999995,34.976,34.604
32.047,35.536,34.954,35.36,34.976,34.592
32.106,35.56,34.931999999999995,35.361999999999995,34.976,34.586
32.166,35.59,34.91,35.368,34.976,34.586
32.225,35.626,34.887,35.381,34.977,34.592
32.282,35.665,34.865,35.398,34.978,34.603
32.335,35.707,34.842,35.42,34.978,34.618
32.385,35.751,34.82,35.448,34.978,34.635999999999996
32.429,35.796,34.797,35.481,34.978,34.657
32.468,35.84,34.773,35.519,34.977,34.679
32.5,35.884,34.748000000000005,35.561,34.976,34.702
32.524,35.927,34.722,35.608000000000004,34.974000000000004,34.724000000000004
32.541,35.968,34.695,35.66,34.971,34.746
32.549,36.008,34.667,35.714,34.968,34.765
32.549,36.047,34.638000000000005,35.772,34.963,34.783
32.542,36.082,34.609,35.832,34.957,34.798
32.53,36.115,34.579,35.896,34.95,34.81
32.514,36.145,34.549,35.961999999999996,34.942,34.819
32.495,36.171,34.521,36.031,34.933,34.826
32.474000000000004,36.191,34.494,36.102,34.925,34.830999999999996
32.452,36.205,34.469,36.178000000000004,34.917,34.833
32.431,36.214,34.446,36.257,34.911,34.833
32.411,36.216,34.427,36.34,34.906,34.830999999999996
32.391999999999996,36.211,34.412,36.428000000000004,34.905,34.828
32.375,36.2,34.4,36.52,34.908,34.824
32.36,36.181999999999995,34.391,36.615,34.917,34.819
32.348,36.158,34.385999999999996,36.713,34.931,34.813
32.341,36.129,34.384,36.814,34.953,34.806
32.339,36.094,34.387,36.917,34.983000000000004,34.797
32.345,36.055,34.393,37.02,35.023,34.787
32.361,36.012,34.403,37.123000000000005,35.071999999999996,34.775
32.388000000000005,35.967,34.415,37.223,35.133,34.760999999999996
32.428000000000004,35.919000000000004,34.429,37.32,35.204,34.744
32.484,35.871,34.445,37.411,35.285,34.724000000000004
32.556999999999995,35.823,34.463,37.495,35.375,34.704
32.649,35.775999999999996,34.482,37.571,35.473,34.681999999999995
32.762,35.731,34.501999999999995,37.637,35.577,34.661
32.896,35.689,34.522,37.692,35.684,34.641
33.05,35.650999999999996,34.541,37.735,35.792,34.622
33.224000000000004,35.615,34.558,37.765,35.899,34.605
33.414,35.584,34.574,37.781,36.003,34.59
33.618,35.556,34.586999999999996,37.784,36.102,34.577
33.833,35.532,34.597,37.774,36.194,34.567
34.055,35.512,34.605,37.751999999999995,36.278,34.559
34.281,35.495,34.609,37.721,36.351,34.552
34.508,35.482,34.61,37.68,36.413000000000004,34.547
34.731,35.471,34.607,37.63,36.464,34.543
34.948,35.463,34.6,37.573,36.501999999999995,34.54
35.156,35.459,34.591,37.510999999999996,36.527,34.537
35.352,35.458,34.579,37.445,36.54,34.534
35.533,35.461,34.564,37.376,36.54,34.531
35.698,35.467,34.547,37.306,36.528,34.527
35.844,35.476,34.527,37.236,36.505,34.523
35.972,35.488,34.506,37.167,36.474000000000004,34.519
36.079,35.501,34.484,37.099000000000004,36.434,34.515
36.164,35.516,34.461,37.034,36.387,34.510999999999996
36.229,35.533,34.439,36.97,36.335,34.508
36.273,35.549,34.418,36.909,36.279,34.504
36.297,35.565,34.398,36.85,36.22,34.501
36.302,35.579,34.379,36.794000000000004,36.161,34.498000000000005
36.289,35.591,34.361999999999995,36.74,36.101,34.495
36.259,35.597,34.345,36.688,36.042,34.492
36.215,35.599000000000004,34.329,36.639,35.986,34.488
36.158,35.593,34.313,36.591,35.933,34.485
36.09,35.58,34.298,36.546,35.884,34.481
36.014,35.559,34.281,36.501999999999995,35.839,34.476
35.931999999999995,35.531,34.265,36.46,35.798,34.473
35.847,35.495,34.248000000000005,36.42,35.762,34.469
35.760999999999996,35.453,34.23,36.382,35.729,34.466
35.676,35.404,34.211999999999996,36.346,35.701,34.463
35.594,35.35,34.193000000000005,36.312,35.677,34.46
35.519,35.293,34.173,36.279,35.657,34.458
35.45,35.233000000000004,34.152,36.246,35.639,34.455
35.388000000000005,35.172,34.129,36.213,35.625,34.453
35.335,35.111,34.104,36.179,35.613,34.45
35.289,35.051,34.077,36.144,35.603,34.448
35.25,34.993,34.049,36.109,35.595,34.445
35.218,34.937,34.018,36.071,35.586999999999996,34.441
35.193000000000005,34.885,33.985,36.032,35.579,34.437
35.172,34.836,33.951,35.991,35.571,34.431
35.156,34.789,33.915,35.948,35.561,34.426
35.141999999999996,34.746,33.88,35.902,35.551,34.421
35.129,34.704,33.845,35.854,35.539,34.417
35.117,34.664,33.812,35.804,35.527,34.413000000000004
35.104,34.626,33.781,35.751999999999995,35.512,34.411
35.088,34.588,33.754,35.699,35.497,34.411
35.069,34.551,33.731,35.646,35.48,34.411
35.046,34.514,33.711,35.594,35.463,34.413000000000004
35.016999999999996,34.477,33.694,35.543,35.444,34.415
34.983000000000004,34.441,33.68,35.495,35.425,34.418
34.942,34.405,33.667,35.45,35.406,34.421
34.894,34.369,33.655,35.409,35.387,34.424
34.84,34.335,33.644,35.374,35.37,34.427
34.781,34.302,33.632,35.344,35.355,34.43
34.716,34.269,33.62,35.32,35.343,34.433
34.649,34.239000000000004,33.608000000000004,35.302,35.333,34.435
34.578,34.21,33.596,35.292,35.327,34.438
34.507,34.183,33.586,35.289,35.324,34.44
34.436,34.159,33.575,35.292,35.324,34.442
34.365,34.137,33.566,35.302,35.328,34.444
34.298,34.119,33.556,35.319,35.334,34.445
34.235,34.104,33.547,35.341,35.344,34.446
34.177,34.092,33.537,35.368,35.356,34.448
34.124,34.084,33.525,35.399,35.371,34.449
34.076,34.078,33.510999999999996,35.433,35.388000000000005,34.45
34.035,34.076,33.497,35.47,35.406,34.451
34.0,34.076,33.481,35.507,35.425,34.452
33.971,34.079,33.465,35.545,35.444,34.453
33.946999999999996,34.083,33.45,35.582,35.464,34.454
33.926,34.089,33.436,35.617,35.483000000000004,34.454
33.908,34.097,33.424,35.65,35.501999999999995,34.453
33.889,34.105,33.415,35.681,35.52,34.453
33.872,34.115,33.41,35.708,35.537,34.452
33.855,34.125,33.409,35.731,35.553000000000004,34.452
33.841,34.135999999999996,33.413000000000004,35.749,35.567,34.451
33.83,34.148,33.42,35.762,35.58,34.451
33.824,34.16,33.43,35.769,35.591,34.45
33.823,34.171,33.442,35.771,35.6,34.45
33.827,34.183,33.455,35.768,35.605,34.449
33.835,34.195,33.469,35.760999999999996,35.608000000000004,34.448
33.844,34.207,33.483000000000004,35.749,35.609,34.446999999999996
33.85,34.218,33.496,35.734,35.607,34.445
33.85,34.228,33.508,35.716,35.602,34.443000000000005
33.839,34.236999999999995,33.518,35.696,35.595,34.439
33.815,34.246,33.525,35.673,35.586,34.434
33.774,34.251999999999995,33.529,35.649,35.574,34.428000000000004
33.716,34.258,33.531,35.622,35.559,34.42
33.641,34.260999999999996,33.53,35.595,35.542,34.41
33.553000000000004,34.260999999999996,33.527,35.567,35.523,34.396
33.455999999999996,34.259,33.522,35.538000000000004,35.501999999999995,34.379
33.354,34.255,33.515,35.509,35.48,34.356
33.25,34.25,33.507,35.48,35.455999999999996,34.329
33.147,34.244,33.498000000000005,35.453,35.431999999999995,34.295
33.049,34.236999999999995,33.488,35.426,35.408,34.254
32.955999999999996,34.232,33.478,35.4,35.383,34.205
32.872,34.228,33.469,35.375,35.359,34.148
32.796,34.225,33.46,35.35,35.334,34.082
32.731,34.225,33.451,35.323,35.31,34.007
32.674,34.227,33.443000000000005,35.295,35.286,33.923
32.624,34.232,33.436,35.266,35.262,33.829
32.580999999999996,34.238,33.428000000000004,35.234,35.24,33.726
32.541,34.246,33.422,35.2,35.218,33.615
32.504,34.256,33.416,35.165,35.196999999999996,33.497
32.466,34.266,33.41,35.129,35.177,33.373000000000005
32.427,34.275999999999996,33.406,35.094,35.158,33.247
32.385,34.287,33.400999999999996,35.06,35.141,33.12
32.338,34.297,33.398,35.027,35.124,32.995
32.288000000000004,34.308,33.394,34.995,35.11,32.875
32.234,34.318000000000005,33.391999999999996,34.965,35.097,32.762
32.176,34.327,33.389,34.935,35.085,32.661
32.115,34.336,33.388000000000005,34.905,35.074,32.576
32.054,34.344,33.387,34.874,35.065,32.508
31.991999999999997,34.351,33.387,34.842,35.056999999999995,32.461999999999996
31.933000000000003,34.357,33.387,34.809,35.049,32.437
31.878,34.361,33.387,34.774,35.042,32.437
31.828000000000003,34.365,33.388000000000005,34.739000000000004,35.036,32.464
31.785,34.368,33.388000000000005,34.704,35.031,32.519
31.748,34.372,33.388000000000005,34.67,35.025999999999996,32.603
31.717,34.376,33.388000000000005,34.639,35.022,32.716
31.694000000000003,34.382,33.387,34.61,35.018,32.858000000000004
31.677,34.388000000000005,33.387,34.585,35.016,33.025999999999996
31.668000000000003,34.397,33.387,34.565,35.014,33.219
31.665,34.406,33.388000000000005,34.549,35.012,33.433
31.669,34.417,33.391,34.539,35.010999999999996,33.663000000000004
31.679000000000002,34.43,33.397,34.532,35.009,33.906
31.694000000000003,34.444,33.407,34.53,35.006,34.156
31.713,34.459,33.423,34.531,35.003,34.408
31.735,34.475,33.446999999999996,34.535,34.999,34.657
31.758000000000003,34.492,33.481,34.541,34.995,34.898
31.781,34.510999999999996,33.527,34.548,34.992,35.124
31.8,34.53,33.586,34.555,34.988,35.333
31.816,34.551,33.662,34.561,34.984,35.52
31.828000000000003,34.573,33.754,34.568000000000005,34.981,35.683
31.835,34.597,33.863,34.575,34.978,35.821999999999996
31.838,34.622,33.989000000000004,34.582,34.974000000000004,35.936
31.836,34.649,34.13,34.59,34.971,36.025
31.831,34.677,34.284,34.598,34.969,36.091
31.823,34.707,34.449,34.609,34.966,36.138000000000005
31.813000000000002,34.74,34.622,34.621,34.964,36.166
31.803,34.775999999999996,34.798,34.635999999999996,34.961,36.18
31.795,34.815,34.973,34.654,34.959,36.183
31.791,34.858000000000004,35.143,34.673,34.957,36.177
31.79,34.907,35.304,34.694,34.955,36.166
31.794,34.961,35.453,34.715,34.954,36.152
31.803,35.022,35.586999999999996,34.736999999999995,34.953,36.135999999999996
31.816,35.09,35.703,34.76,34.953,36.121
31.833000000000002,35.167,35.799,34.782,34.953,36.109
31.854,35.254,35.874,34.805,34.953,36.103
31.879,35.35,35.928000000000004,34.827,34.953,36.105
31.906,35.457,35.961,34.849000000000004,34.954,36.117
31.936,35.575,35.973,34.87,34.954,36.143
31.967,35.705,35.965,34.891999999999996,34.955,36.184
31.999000000000002,35.846,35.941,34.913000000000004,34.954,36.242
32.032,35.999,35.903,34.935,34.954,36.318000000000005
32.066,36.16,35.851,34.957,34.952,36.412
32.099000000000004,36.329,35.79,34.979,34.95,36.523
32.133,36.503,35.721,35.001,34.946,36.647
32.167,36.678000000000004,35.647,35.022,34.942,36.782
32.203,36.851,35.57,35.044000000000004,34.937,36.921
32.24,37.02,35.492,35.066,34.93,37.059
32.279,37.18,35.415,35.089,34.924,37.19
32.321,37.33,35.34,35.113,34.917,37.309
32.365,37.468,35.269,35.14,34.91,37.411
32.412,37.591,35.204,35.169000000000004,34.904,37.492
32.463,37.699,35.144,35.204,34.898,37.55
32.516999999999996,37.791,35.091,35.243,34.893,37.583
32.573,37.867,35.043,35.291,34.89,37.593
32.632,37.925,35.001999999999995,35.346,34.888000000000005,37.58
32.692,37.967,34.965,35.41,34.887,37.547
32.751999999999995,37.991,34.934,35.482,34.888000000000005,37.497
32.812,37.999,34.908,35.564,34.889,37.433
32.87,37.991,34.885999999999996,35.653,34.891,37.359
32.926,37.968,34.868,35.749,34.893,37.278
32.977,37.931,34.853,35.85,34.895,37.194
33.025,37.882,34.84,35.955,34.897,37.109
33.068000000000005,37.821,34.828,36.06,34.898,37.025999999999996
33.106,37.75,34.817,36.165,34.899,36.946999999999996
33.139,37.67,34.806,36.266,34.899,36.872
33.168,37.582,34.795,36.363,34.9,36.804
33.192,37.486999999999995,34.783,36.453,34.9,36.742
33.211,37.387,34.771,36.535,34.9,36.687
33.227,37.283,34.757,36.608000000000004,34.899,36.639
33.238,37.175,34.742,36.672,34.897,36.596
33.245,37.066,34.727,36.724000000000004,34.895,36.559
33.248000000000005,36.955999999999996,34.711,36.765,34.891,36.525
33.249,36.847,34.693000000000005,36.793,34.887,36.495
33.246,36.74,34.675,36.81,34.883,36.466
33.242,36.637,34.656,36.814,34.876999999999995,36.438
33.235,36.538000000000004,34.635999999999996,36.806999999999995,34.871,36.411
33.227,36.443000000000005,34.615,36.788000000000004,34.864000000000004,36.384
33.218,36.353,34.593,36.76,34.857,36.355
33.208,36.269,34.571,36.723,34.851,36.326
33.198,36.189,34.547,36.679,34.845,36.295
33.187,36.114000000000004,34.524,36.628,34.841,36.263000000000005
33.176,36.045,34.5,36.573,34.839,36.228
33.165,35.98,34.475,36.514,34.84,36.192
33.155,35.921,34.451,36.453,34.844,36.153
33.144,35.866,34.429,36.391,34.853,36.111
33.134,35.816,34.407,36.329,34.867,36.067
33.124,35.769,34.387,36.27,34.889,36.02
33.115,35.724000000000004,34.37,36.215,34.919000000000004,35.97
33.108000000000004,35.681999999999995,34.355,36.164,34.959,35.918
33.102,35.64,34.345,36.12,35.012,35.863
33.097,35.597,34.338,36.082,35.077,35.806
33.094,35.553000000000004,34.336999999999996,36.05,35.156,35.748000000000005
33.091,35.507,34.34,36.025,35.248000000000005,35.688
33.089,35.46,34.349000000000004,36.006,35.352,35.626999999999995
33.086,35.413000000000004,34.364000000000004,35.991,35.467,35.567
33.085,35.366,34.384,35.98,35.592,35.508
33.083,35.319,34.408,35.972,35.722,35.451
33.080999999999996,35.273,34.437,35.965,35.857,35.395
33.079,35.229,34.469,35.957,35.993,35.341
33.076,35.189,34.501999999999995,35.948,36.128,35.291
33.073,35.152,34.536,35.937,36.258,35.243
33.069,35.12,34.571,35.922,36.38,35.2
33.065,35.093,34.604,35.905,36.493,35.16
33.06,35.073,34.635,35.885,36.594,35.124
33.056999999999995,35.06,34.662,35.861,36.681999999999995,35.091
33.054,35.055,34.685,35.833,36.756,35.061
33.054,35.056,34.702,35.801,36.815,35.033
33.056999999999995,35.065,34.714,35.765,36.86,35.008
33.064,35.08,34.721,35.724000000000004,36.891,34.986
33.078,35.103,34.722,35.678000000000004,36.909,34.967
33.099000000000004,35.131,34.717,35.626,36.914,34.951
33.13,35.166,34.708,35.568000000000005,36.908,34.938
33.173,35.205999999999996,34.696,35.506,36.891,34.929
33.23,35.25,34.679,35.439,36.866,34.924
33.303000000000004,35.297,34.661,35.369,36.833,34.922
33.391999999999996,35.346,34.641,35.297,36.793,34.923
33.498000000000005,35.396,34.619,35.223,36.748000000000005,34.929
33.622,35.443000000000005,34.597,35.149,36.7,34.937
33.764,35.486999999999995,34.575,35.077,36.648,34.949
33.922,35.527,34.553000000000004,35.008,36.594,34.965
34.096,35.563,34.532,34.943000000000005,36.538000000000004,34.985
34.283,35.593,34.510999999999996,34.882,36.481,35.009
34.481,35.617,34.491,34.828,36.424,35.038000000000004
34.688,35.634,34.472,34.779,36.366,35.07
34.899,35.645,34.453,34.736999999999995,36.309,35.106
35.111999999999995,35.648,34.434,34.701,36.253,35.146
35.324,35.645,34.415,34.671,36.199,35.189
35.53,35.635,34.395,34.647,36.147,35.234
35.728,35.619,34.374,34.628,36.097,35.281
35.915,35.598,34.352,34.615,36.05,35.33
36.09,35.571999999999996,34.328,34.607,36.006,35.38
36.249,35.544000000000004,34.303000000000004,34.604,35.965,35.429
36.391,35.513000000000005,34.275999999999996,34.606,35.927,35.478
36.515,35.48,34.249,34.614000000000004,35.891999999999996,35.525
36.619,35.446999999999996,34.221,34.626,35.859,35.571
36.703,35.412,34.193000000000005,34.641999999999996,35.829,35.613
36.766,35.376999999999995,34.166,34.662,35.8,35.653
36.809,35.34,34.141,34.685,35.772,35.689
36.833,35.302,34.117,34.71,35.745,35.722
36.838,35.262,34.096,34.736999999999995,35.719,35.75
36.826,35.22,34.076,34.765,35.693000000000005,35.773
36.799,35.176,34.058,34.793,35.668,35.793
36.76,35.131,34.041,34.82,35.641999999999996,35.806999999999995
36.71,35.084,34.025,34.846,35.615,35.816
36.652,35.036,34.01,34.87,35.588,35.82
36.589,34.988,33.996,34.891999999999996,35.561,35.817
36.522,34.939,33.983000000000004,34.911,35.532,35.809
36.455,34.889,33.971,34.925,35.503,35.795
36.389,34.839,33.961,34.936,35.475,35.777
36.326,34.789,33.951,34.943000000000005,35.446999999999996,35.754
36.266,34.74,33.943000000000005,34.948,35.421,35.727
36.211,34.691,33.936,34.95,35.396,35.699
36.163000000000004,34.643,33.929,34.951,35.374,35.67
36.119,34.596,33.925,34.95,35.355,35.641
36.080999999999996,34.552,33.922,34.949,35.341,35.611999999999995
36.047,34.51,33.919000000000004,34.948,35.33,35.584
36.016,34.472,33.918,34.946999999999996,35.324,35.558
35.986,34.436,33.917,34.946,35.321999999999996,35.534
35.957,34.404,33.918,34.946,35.325,35.510999999999996
35.928000000000004,34.375,33.919000000000004,34.946,35.332,35.49
35.899,34.349000000000004,33.921,34.944,35.343,35.47
35.868,34.325,33.923,34.942,35.358000000000004,35.451
35.836999999999996,34.304,33.924,34.938,35.375,35.431999999999995
35.803000000000004,34.285,33.925,34.933,35.394,35.415
35.766999999999996,34.269,33.925,34.927,35.415,35.398
35.729,34.256,33.925,34.92,35.437,35.382
35.689,34.247,33.923,34.912,35.461,35.367
35.645,34.241,33.921,34.904,35.484,35.353
35.601,34.24,33.918,34.897,35.507,35.338
35.554,34.242,33.913000000000004,34.89,35.529,35.324
35.507,34.247,33.907,34.884,35.549,35.309
35.459,34.255,33.9,34.88,35.568000000000005,35.295
35.411,34.264,33.891,34.876,35.584,35.281
35.364000000000004,34.274,33.882,34.872,35.598,35.266999999999996
35.32,34.284,33.873000000000005,34.869,35.608000000000004,35.253
35.28,34.294000000000004,33.863,34.867,35.616,35.239000000000004
35.245,34.303000000000004,33.854,34.864000000000004,35.621,35.225
35.215,34.312,33.846,34.863,35.624,35.21
35.191,34.319,33.836999999999996,34.861,35.624,35.195
35.173,34.325,33.829,34.86,35.621,35.18
35.16,34.329,33.821999999999996,34.858000000000004,35.616,35.164
35.153,34.332,33.815,34.856,35.609,35.149
35.150999999999996,34.333,33.808,34.854,35.6,35.132
35.155,34.333,33.801,34.851,35.588,35.116
35.164,34.33,33.794000000000004,34.847,35.574,35.1
35.179,34.325,33.787,34.842,35.559,35.083
35.2,34.318000000000005,33.78,34.838,35.541,35.066
35.227,34.309,33.773,34.834,35.522,35.049
35.26,34.299,33.766999999999996,34.83,35.501999999999995,35.031
35.297,34.289,33.76,34.829,35.48,35.014
35.34,34.279,33.753,34.828,35.458,34.998000000000005
35.388000000000005,34.271,33.746,34.829,35.434,34.981
35.438,34.264,33.739000000000004,34.832,35.411,34.965
35.491,34.259,33.733000000000004,34.836999999999996,35.388000000000005,34.95
35.546,34.255,33.726,34.844,35.365,34.935
35.601,34.251999999999995,33.72,34.854,35.344,34.92
35.654,34.25,33.714,34.867,35.324,34.905
35.705,34.248000000000005,33.709,34.884,35.305,34.889
35.753,34.247,33.704,34.906,35.288000000000004,34.873000000000005
35.796,34.245,33.7,34.933,35.273,34.859
35.835,34.244,33.696,34.966,35.259,34.846
35.868,34.243,33.694,35.005,35.247,34.836
35.896,34.241,33.692,35.051,35.236,34.83
35.918,34.241,33.692,35.104,35.226,34.83
35.935,34.241,33.694,35.163000000000004,35.217,34.836
35.946999999999996,34.243,33.695,35.226,35.209,34.849000000000004
35.954,34.247,33.698,35.292,35.201,34.872
35.955999999999996,34.253,33.7,35.36,35.194,34.904
35.953,34.26,33.702,35.429,35.187,34.949
35.946,34.268,33.704,35.497,35.18,35.005
35.935,34.277,33.707,35.562,35.174,35.074
35.921,34.287,33.711,35.626,35.167,35.156
35.903,34.297,33.718,35.686,35.161,35.249
35.882,34.309,33.731,35.744,35.155,35.353
35.858000000000004,34.321,33.751999999999995,35.798,35.149,35.466
35.832,34.334,33.782,35.849000000000004,35.144,35.586999999999996
35.805,34.348,33.824,35.897,35.139,35.714
35.777,34.363,33.879,35.94,35.135,35.842
35.748000000000005,34.378,33.949,35.98,35.131,35.971
35.719,34.393,34.035,36.015,35.126999999999995,36.097
35.689,34.407,34.135,36.045,35.122,36.217
35.658,34.421,34.25,36.07,35.117,36.329
35.626,34.433,34.376999999999995,36.091,35.113,36.431999999999995
35.593,34.443000000000005,34.516,36.107,35.108000000000004,36.522
35.559,34.452,34.665,36.119,35.104,36.6
35.524,34.458,34.82,36.126999999999995,35.1,36.665
35.486999999999995,34.463,34.978,36.132,35.097,36.717
35.449,34.466,35.137,36.134,35.095,36.756
35.409,34.467,35.292,36.135,35.093,36.783
35.368,34.466,35.442,36.135,35.092,36.799
35.327,34.463,35.582,36.135999999999996,35.092,36.804
35.285,34.459,35.711,36.139,35.093,36.8
35.243,34.453,35.826,36.145,35.094,36.788000000000004
35.202,34.446,35.925,36.154,35.095,36.768
35.162,34.437,36.006,36.166,35.098,36.742
35.124,34.426,36.07,36.181999999999995,35.101,36.711
35.086,34.416,36.116,36.199,35.105,36.674
35.049,34.406,36.143,36.219,35.11,36.632
35.013000000000005,34.397,36.153,36.24,35.117,36.586
34.978,34.391,36.147,36.263000000000005,35.124,36.535
34.945,34.389,36.126,36.288000000000004,35.132,36.482
34.914,34.393,36.092,36.313,35.141,36.426
34.885,34.404,36.047,36.339,35.148,36.369
34.858000000000004,34.425,35.993,36.367,35.156,36.31
34.834,34.457,35.931,36.396,35.162,36.25
34.813,34.5,35.865,36.426,35.167,36.189
34.795,34.556,35.795,36.455,35.171,36.13
34.779,34.626,35.725,36.484,35.174,36.07
34.764,34.709,35.655,36.512,35.176,36.012
34.751,34.806,35.586999999999996,36.537,35.176,35.955
34.74,34.916,35.522,36.558,35.176,35.9
34.729,35.037,35.461,36.575,35.173,35.847
34.72,35.168,35.403,36.586,35.17,35.795
34.71,35.306999999999995,35.35,36.592,35.165,35.747
34.701,35.449,35.3,36.591,35.159,35.701
34.691,35.593,35.255,36.584,35.153,35.657
34.681999999999995,35.734,35.213,36.57,35.145,35.616
34.672,35.87,35.175,36.551,35.138000000000005,35.578
34.662,36.0,35.139,36.525,35.132,35.541
34.652,36.12,35.105,36.495,35.125,35.508
34.643,36.229,35.071999999999996,36.46,35.119,35.476
34.634,36.326,35.04,36.421,35.111999999999995,35.445
34.626,36.41,35.008,36.379,35.106,35.416
34.618,36.479,34.976,36.333,35.098,35.387
34.611,36.531,34.944,36.286,35.09,35.359
34.605,36.567,34.91,36.236999999999995,35.083,35.332
34.6,36.586,34.876,36.188,35.075,35.305
34.596,36.589,34.841,36.14,35.066,35.278
34.593,36.576,34.806,36.093,35.058,35.253
34.59,36.55,34.771,36.049,35.049,35.229
34.588,36.513000000000005,34.738,36.006,35.04,35.205999999999996
34.586,36.467,34.705,35.965,35.031,35.186
34.584,36.412,34.674,35.927,35.021,35.168
34.580999999999996,36.353,34.644,35.89,35.01,35.153
34.577,36.289,34.615,35.857,34.999,35.141999999999996
34.573,36.222,34.588,35.826,34.986999999999995,35.135
34.567,36.152,34.562,35.799,34.976,35.131
34.561,36.082,34.538000000000004,35.775999999999996,34.965,35.132
34.553000000000004,36.01,34.516999999999996,35.755,34.954,35.134
34.544000000000004,35.938,34.499,35.738,34.946,35.14
34.533,35.867,34.483000000000004,35.723,34.938,35.147
34.52,35.798,34.47,35.711,34.931999999999995,35.156
34.507,35.731,34.459,35.7,34.928000000000004,35.167
34.494,35.668,34.452,35.691,34.926,35.181
34.481,35.609,34.446,35.681,34.925,35.195
34.471,35.554,34.443000000000005,35.671,34.926,35.211
34.464,35.504,34.441,35.658,34.929,35.227
34.458,35.459,34.441,35.641999999999996,34.933,35.243
34.454,35.419000000000004,34.443000000000005,35.622,34.939,35.258
34.451,35.383,34.446999999999996,35.6,34.946,35.274
34.448,35.351,34.454,35.575,34.955999999999996,35.289
34.446,35.323,34.464,35.548,34.968,35.302
34.443000000000005,35.3,34.478,35.52,34.983000000000004,35.313
34.439,35.279,34.495,35.491,35.003,35.321
34.435,35.260999999999996,34.514,35.463,35.028,35.327
34.429,35.244,34.537,35.437,35.06,35.33
34.422,35.227,34.562,35.413000000000004,35.101,35.330999999999996
34.412,35.209,34.589,35.391,35.150999999999996,35.33
34.400999999999996,35.19,34.618,35.373000000000005,35.211,35.328
34.388000000000005,35.168,34.648,35.36,35.28,35.325
34.373000000000005,35.145,34.678000000000004,35.35,35.359,35.321999999999996
34.357,35.121,34.707,35.346,35.445,35.318000000000005
34.339,35.095,34.733000000000004,35.346,35.538000000000004,35.314
34.321,35.068000000000005,34.755,35.352,35.634,35.309
34.302,35.042,34.775,35.361,35.733000000000004,35.305
34.285,35.016,34.79,35.376,35.832,35.301
34.269,34.99,34.8,35.393,35.929,35.297
34.254,34.965,34.806999999999995,35.415,36.021,35.292
34.242,34.941,34.809,35.439,36.107,35.286
34.233000000000004,34.92,34.806999999999995,35.466,36.184,35.28
34.225,34.902,34.803000000000004,35.495,36.251,35.273
34.219,34.888000000000005,34.798,35.524,36.306999999999995,35.266
34.214,34.88,34.791,35.553000000000004,36.352,35.257
34.209,34.878,34.785,35.58,36.385,35.248000000000005
34.203,34.883,34.779,35.607,36.406,35.236999999999995
34.196999999999996,34.896,34.774,35.631,36.416,35.226
34.189,34.917,34.77,35.653,36.415,35.214
34.181999999999995,34.944,34.765,35.671,36.405,35.203
34.174,34.978,34.760999999999996,35.687,36.385,35.192
34.167,35.016,34.756,35.7,36.358000000000004,35.181999999999995
34.16,35.059,34.751,35.708,36.321999999999996,35.173
34.154,35.104,34.744,35.713,36.281,35.164
34.15,35.150999999999996,34.736,35.713,36.234,35.157
34.147,35.198,34.726,35.709,36.184,35.150999999999996
34.146,35.246,34.714,35.702,36.13,35.147
34.148,35.293,34.7,35.691,36.075,35.144
34.154,35.338,34.684,35.677,36.02,35.143
34.165,35.381,34.665,35.661,35.965,35.143
34.181999999999995,35.42,34.645,35.641999999999996,35.912,35.145
34.207,35.454,34.622,35.622,35.86,35.146
34.242,35.483000000000004,34.599000000000004,35.599000000000004,35.811,35.148
34.29,35.507,34.574,35.576,35.763000000000005,35.15
34.353,35.524,34.55,35.552,35.719,35.150999999999996
34.431,35.536,34.525,35.527,35.679,35.15
34.528,35.543,34.501999999999995,35.501,35.641999999999996,35.147
34.644,35.545,34.479,35.473,35.611,35.14
34.778,35.544000000000004,34.458,35.445,35.584,35.13
34.93,35.54,34.437,35.416,35.562,35.116
35.099000000000004,35.534,34.417,35.385999999999996,35.545,35.099000000000004
35.282,35.525,34.397,35.355,35.532,35.079
35.476,35.515,34.378,35.323,35.522,35.056
35.679,35.503,34.359,35.291,35.516,35.032
35.887,35.489000000000004,34.34,35.259,35.512,35.007
36.096,35.472,34.32,35.226,35.510999999999996,34.982
36.303000000000004,35.454,34.301,35.195,35.51,34.955999999999996
36.504,35.434,34.282,35.163000000000004,35.510999999999996,34.931
36.696,35.413000000000004,34.264,35.133,35.512,34.906
36.874,35.39,34.247,35.104,35.513000000000005,34.882
37.036,35.366,34.23,35.075,35.513000000000005,34.858000000000004
37.18,35.34,34.215,35.048,35.510999999999996,34.835
37.304,35.313,34.201,35.022,35.507,34.814
37.407,35.283,34.187,34.998000000000005,35.501,34.795
37.489000000000004,35.251999999999995,34.175,34.975,35.492,34.778
37.55,35.218,34.164,34.952,35.48,34.763000000000005
37.591,35.181999999999995,34.154,34.931,35.466,34.75
37.611999999999995,35.145,34.146,34.911,35.45,34.74
37.615,35.108000000000004,34.138000000000005,34.894,35.431999999999995,34.73
37.601,35.07,34.132,34.879,35.413000000000004,34.722
37.574,35.033,34.128,34.866,35.394,34.714
37.535,34.997,34.124,34.857,35.375,34.707
37.485,34.963,34.122,34.851,35.357,34.699
37.427,34.931999999999995,34.122,34.847,35.34,34.692
37.363,34.903,34.123000000000005,34.847,35.324,34.684
37.295,34.876999999999995,34.126,34.85,35.312,34.677
37.223,34.854,34.13,34.856,35.303000000000004,34.669000000000004
37.15,34.833,34.135,34.863,35.298,34.66
37.077,34.815,34.141,34.871,35.298,34.652
37.004,34.799,34.148,34.88,35.302,34.644
36.933,34.785,34.156,34.887,35.309,34.635
36.863,34.775,34.165,34.895,35.319,34.626
36.796,34.766,34.174,34.900999999999996,35.332,34.615
36.731,34.760999999999996,34.183,34.907,35.346,34.604
36.669000000000004,34.757,34.191,34.911,35.361,34.592
36.61,34.756,34.199,34.914,35.376999999999995,34.579
36.555,34.755,34.205999999999996,34.915,35.393,34.565
36.503,34.756,34.211,34.914,35.409,34.55
36.455,34.757,34.216,34.91,35.425,34.534
36.409,34.759,34.219,34.905,35.439,34.516
36.367,34.760999999999996,34.221,34.899,35.452,34.497
36.326,34.763000000000005,34.222,34.891999999999996,35.463,34.476
36.286,34.766,34.221,34.884,35.472,34.452
36.248000000000005,34.768,34.22,34.875,35.479,34.426
36.211999999999996,34.771,34.218,34.866,35.482,34.398
36.176,34.774,34.215,34.857,35.484,34.368
36.14,34.775,34.211999999999996,34.846,35.483000000000004,34.336
36.105,34.775999999999996,34.208,34.834,35.48,34.3
36.069,34.775,34.204,34.821,35.475,34.263000000000005
36.032,34.772,34.199,34.806999999999995,35.467,34.224000000000004
35.993,34.766999999999996,34.195,34.792,35.457,34.184
35.953,34.759,34.192,34.778,35.445,34.143
35.909,34.75,34.19,34.763000000000005,35.431,34.103
35.864000000000004,34.741,34.189,34.749,35.415,34.064
35.817,34.73,34.19,34.736999999999995,35.398,34.025
35.769,34.72,34.194,34.726,35.379,33.989000000000004
35.72,34.711,34.199,34.718,35.359,33.954
35.67,34.703,34.207,34.711999999999996,35.338,33.921
35.621,34.696999999999996,34.217,34.708,35.317,33.89
35.574,34.693000000000005,34.229,34.705999999999996,35.294000000000004,33.861999999999995
35.529,34.689,34.24,34.705,35.271,33.835
35.489000000000004,34.688,34.251999999999995,34.705999999999996,35.248000000000005,33.81
35.453,34.688,34.263000000000005,34.709,35.225,33.786
35.423,34.689,34.274,34.715,35.202,33.764
35.4,34.69,34.283,34.725,35.179,33.745
35.384,34.692,34.292,34.739000000000004,35.156,33.728
35.375,34.695,34.301,34.76,35.133,33.716
35.373000000000005,34.698,34.31,34.787,35.113,33.708
35.379,34.7,34.32,34.823,35.093,33.708
35.391,34.702,34.334,34.869,35.076,33.717
35.408,34.703,34.352,34.924,35.06,33.735
35.43,34.703,34.376999999999995,34.989000000000004,35.046,33.765
35.455,34.703,34.412,35.064,35.032,33.806999999999995
35.482,34.702,34.457,35.149,35.02,33.864000000000004
35.51,34.702,34.514,35.244,35.008,33.937
35.539,34.701,34.585,35.345,34.998000000000005,34.024
35.567,34.701,34.67,35.451,34.988,34.126
35.595,34.701,34.766999999999996,35.561,34.978,34.24
35.621,34.701,34.878,35.671,34.967,34.367
35.646,34.701,35.0,35.78,34.955999999999996,34.501999999999995
35.67,34.701,35.132,35.885999999999996,34.945,34.645
35.692,34.7,35.272,35.986,34.934,34.793
35.711999999999996,34.698,35.417,36.079,34.921,34.942
35.73,34.695,35.564,36.164,34.909,35.09
35.746,34.691,35.71,36.239000000000004,34.897,35.235
35.76,34.686,35.854,36.304,34.885,35.375
35.772,34.681,35.992,36.357,34.874,35.507
35.781,34.677,36.121,36.399,34.865,35.629
35.786,34.672,36.239000000000004,36.43,34.855,35.741
35.788000000000004,34.669000000000004,36.345,36.45,34.847,35.84
35.785,34.665,36.437,36.46,34.838,35.926
35.779,34.662,36.514,36.461,34.83,35.997
35.768,34.657,36.576,36.453,34.821999999999996,36.054
35.751999999999995,34.653,36.623000000000005,36.438,34.814,36.095
35.733000000000004,34.647,36.654,36.416,34.806999999999995,36.123000000000005
35.709,34.641999999999996,36.67,36.389,34.8,36.137
35.681,34.637,36.672,36.357,34.795,36.138000000000005
35.649,34.632,36.66,36.323,34.792,36.129
35.615,34.629,36.634,36.285,34.792,36.111
35.578,34.628,36.596,36.246,34.794000000000004,36.084
35.54,34.629,36.546,36.205999999999996,34.799,36.052
35.5,34.632,36.486,36.166,34.805,36.015
35.459,34.641,36.417,36.125,34.813,35.976
35.417,34.654,36.34,36.084,34.821999999999996,35.935
35.375,34.674,36.26,36.044000000000004,34.832,35.893
35.333,34.702,36.176,36.005,34.843,35.853
35.292,34.739000000000004,36.091,35.967,34.854,35.812
35.25,34.788000000000004,36.008,35.931,34.866,35.774
35.209,34.848,35.927,35.896,34.876999999999995,35.738
35.169000000000004,34.923,35.848,35.865,34.889,35.704
35.129,35.010999999999996,35.774,35.835,34.899,35.674
35.089,35.114000000000004,35.703,35.806999999999995,34.908,35.648
35.049,35.231,35.637,35.782,34.914,35.625
35.01,35.36,35.574,35.758,34.919000000000004,35.605
34.971,35.5,35.516,35.735,34.92,35.588
34.931999999999995,35.646,35.46,35.713,34.92,35.574
34.894,35.796,35.408,35.692,34.918,35.561
34.858000000000004,35.946999999999996,35.36,35.672,34.915,35.551
34.821999999999996,36.096,35.315,35.653,34.91,35.542
34.789,36.24,35.274,35.635999999999996,34.905,35.533
34.756,36.374,35.234,35.619,34.899,35.524
34.724000000000004,36.498000000000005,35.196999999999996,35.602,34.891999999999996,35.516
34.694,36.608000000000004,35.162,35.586999999999996,34.885,35.506
34.664,36.701,35.126999999999995,35.571,34.876999999999995,35.496
34.635,36.775999999999996,35.094,35.556,34.868,35.485
34.606,36.832,35.06,35.541,34.858000000000004,35.474000000000004
34.578,36.87,35.025999999999996,35.525999999999996,34.849000000000004,35.461
34.551,36.889,34.992,35.510999999999996,34.841,35.446999999999996
34.524,36.891,34.957,35.496,34.835,35.433
34.498000000000005,36.876999999999995,34.922,35.481,34.829,35.418
34.473,36.85,34.885,35.466,34.826,35.400999999999996
34.448,36.811,34.848,35.453,34.824,35.385
34.425,36.763000000000005,34.81,35.44,34.824,35.368
34.404,36.707,34.77,35.429,34.825,35.35
34.384,36.646,34.73,35.419000000000004,34.829,35.33
34.366,36.579,34.691,35.413000000000004,34.833,35.308
34.351,36.51,34.652,35.41,34.838,35.285
34.336999999999996,36.438,34.616,35.411,34.843,35.259
34.325,36.366,34.583,35.415,34.849000000000004,35.233000000000004
34.314,36.295,34.554,35.422,34.855,35.205
34.305,36.226,34.53,35.431999999999995,34.861,35.178000000000004
34.297,36.159,34.513000000000005,35.444,34.868,35.152
34.291,36.096,34.501,35.457,34.875,35.129
34.286,36.037,34.495,35.472,34.883,35.11
34.283,35.982,34.496,35.486999999999995,34.893,35.097
34.281,35.93,34.501999999999995,35.503,34.905,35.089
34.279,35.881,34.515,35.518,34.921,35.086999999999996
34.278,35.836,34.532,35.534,34.943000000000005,35.091
34.275,35.793,34.552,35.551,34.972,35.102
34.271,35.753,34.576,35.567,35.01,35.119
34.266999999999996,35.717,34.603,35.583,35.058,35.141
34.262,35.681999999999995,34.633,35.599000000000004,35.117,35.169000000000004
34.258,35.650999999999996,34.665,35.614000000000004,35.187,35.2
34.254,35.621,34.696999999999996,35.629,35.269,35.235
34.25,35.594,34.731,35.643,35.36,35.271
34.247,35.57,34.765,35.656,35.461,35.308
34.245,35.547,34.799,35.668,35.568000000000005,35.344
34.242,35.525,34.833,35.679,35.679,35.379
34.239000000000004,35.504,34.866,35.689,35.791,35.41
34.235,35.482,34.897,35.696,35.900999999999996,35.44
34.229,35.46,34.926,35.701,36.008,35.466
34.222,35.436,34.951,35.704,36.108000000000004,35.489000000000004
34.214,35.411,34.973,35.705,36.2,35.509
34.204,35.384,34.991,35.704,36.282,35.525
34.192,35.355,35.005,35.701,36.352,35.537
34.178000000000004,35.325,35.016,35.696,36.41,35.545
34.163000000000004,35.293,35.022,35.688,36.455,35.55
34.148,35.260999999999996,35.025999999999996,35.678000000000004,36.486,35.553000000000004
34.133,35.23,35.025999999999996,35.665,36.505,35.552
34.119,35.2,35.024,35.650999999999996,36.510999999999996,35.549
34.105,35.173,35.02,35.634,36.507,35.544000000000004
34.093,35.148,35.013000000000005,35.615,36.492,35.538000000000004
34.083,35.126999999999995,35.005,35.595,36.467,35.531
34.074,35.11,34.995,35.574,36.435,35.522
34.067,35.096,34.982,35.552,36.395,35.514
34.061,35.086999999999996,34.968,35.529,36.348,35.504
34.056999999999995,35.080999999999996,34.951,35.506,36.296,35.494
34.054,35.079,34.931,35.484,36.24,35.483000000000004
34.051,35.08,34.91,35.461,36.179,35.472
34.048,35.084,34.885999999999996,35.438,36.117,35.46
34.044000000000004,35.091,34.861,35.415,36.053000000000004,35.446999999999996
34.039,35.102,34.836,35.393,35.99,35.431999999999995
34.031,35.115,34.81,35.371,35.927,35.417
34.021,35.131,34.784,35.35,35.867,35.400999999999996
34.009,35.148,34.758,35.33,35.809,35.383
33.995,35.166,34.733000000000004,35.312,35.755,35.363
33.978,35.186,34.709,35.294000000000004,35.704,35.341
33.961,35.205999999999996,34.686,35.278,35.657,35.318000000000005
33.942,35.227,34.664,35.262,35.614000000000004,35.293
33.924,35.25,34.643,35.247,35.576,35.266999999999996
33.906,35.273,34.622,35.232,35.541,35.238
33.888000000000005,35.298,34.601,35.217,35.51,35.208
33.872,35.324,34.580999999999996,35.203,35.482,35.176
33.858000000000004,35.35,34.562,35.188,35.457,35.141999999999996
33.845,35.376,34.543,35.174,35.435,35.106
33.834,35.400999999999996,34.524,35.16,35.414,35.068000000000005
33.824,35.425,34.506,35.146,35.394,35.029
33.817,35.446,34.488,35.133,35.375,34.989000000000004
33.814,35.464,34.47,35.122,35.357,34.948
33.815,35.48,34.453,35.111999999999995,35.338,34.907
33.821999999999996,35.492,34.436,35.104,35.32,34.867
33.836,35.501,34.418,35.098,35.301,34.827
33.86,35.507,34.400999999999996,35.094,35.28,34.789
33.896,35.51,34.384,35.091,35.259,34.754
33.944,35.509,34.367,35.089,35.236,34.722
34.007,35.504,34.35,35.086999999999996,35.211999999999996,34.693000000000005
34.086,35.497,34.335,35.086,35.188,34.669000000000004
34.181999999999995,35.486,34.321,35.084,35.163000000000004,34.648
34.295,35.474000000000004,34.31,35.082,35.139,34.631
34.425,35.46,34.3,35.08,35.117,34.616
34.57,35.446,34.292,35.078,35.096,34.604
34.73,35.433,34.286,35.076,35.079,34.593
34.900999999999996,35.421,34.281,35.075,35.065,34.583
35.08,35.41,34.278,35.075,35.053000000000004,34.573
35.265,35.400999999999996,34.277,35.077,35.046,34.562
35.453,35.391999999999996,34.277,35.079,35.042,34.551
35.639,35.383,34.277,35.080999999999996,35.041,34.537
35.821999999999996,35.373000000000005,34.278,35.084,35.046,34.522
35.997,35.361,34.278,35.086999999999996,35.055,34.506
36.162,35.346,34.279,35.09,35.068000000000005,34.486999999999995
36.315,35.328,34.28,35.091,35.085,34.467
36.454,35.306,34.282,35.091,35.105,34.445
36.576,35.28,34.285,35.088,35.128,34.42
36.681,35.251999999999995,34.289,35.084,35.152,34.394
36.766999999999996,35.222,34.294000000000004,35.079,35.178000000000004,34.366
36.836,35.191,34.298,35.071,35.204,34.336999999999996
36.885999999999996,35.159,34.302,35.063,35.231,34.308
36.919000000000004,35.128,34.305,35.053000000000004,35.257,34.277
36.935,35.097,34.308,35.042,35.284,34.246
36.935,35.068000000000005,34.31,35.03,35.311,34.215
36.92,35.041,34.311,35.019,35.336999999999996,34.184
36.89,35.015,34.312,35.008,35.363,34.153
36.848,34.993,34.313,34.999,35.388000000000005,34.122
36.794000000000004,34.973,34.313,34.992,35.411,34.092
36.73,34.955999999999996,34.312,34.986999999999995,35.431999999999995,34.062
36.659,34.943000000000005,34.311,34.985,35.449,34.034
36.580999999999996,34.933,34.31,34.985,35.463,34.007
36.498000000000005,34.926,34.308,34.988,35.473,33.982
36.414,34.921,34.305,34.994,35.478,33.957
36.327,34.918,34.303000000000004,35.005,35.478,33.934
36.241,34.916,34.301,35.021,35.474000000000004,33.912
36.156,34.914,34.3,35.043,35.465,33.891999999999996
36.074,34.913000000000004,34.3,35.071999999999996,35.452,33.872
35.996,34.914,34.301,35.11,35.435,33.853
35.923,34.915,34.304,35.157,35.415,33.836
35.856,34.919000000000004,34.308,35.211999999999996,35.395,33.82
35.793,34.925,34.313,35.275999999999996,35.374,33.808
35.736999999999995,34.934,34.319,35.349000000000004,35.354,33.798
35.685,34.946,34.325,35.43,35.334,33.79
35.638000000000005,34.961,34.332,35.516,35.315,33.784
35.595,34.979,34.339,35.608000000000004,35.296,33.78
35.556,35.0,34.345,35.703,35.278,33.779
35.52,35.022,34.352,35.8,35.26,33.779
35.486,35.044000000000004,34.358000000000004,35.897,35.242,33.781
35.454,35.067,34.364000000000004,35.991,35.223,33.786
35.423,35.088,34.373000000000005,36.080999999999996,35.204,33.794000000000004
35.394,35.109,34.384,36.165,35.183,33.805
35.364000000000004,35.128,34.399,36.242,35.16,33.818000000000005
35.334,35.145,34.42,36.311,35.135999999999996,33.835
35.304,35.16,34.446999999999996,36.371,35.111999999999995,33.853
35.271,35.174,34.484,36.422,35.086999999999996,33.874
35.236999999999995,35.186,34.53,36.463,35.064,33.896
35.202,35.196999999999996,34.589,36.494,35.043,33.919000000000004
35.164,35.205999999999996,34.66,36.516999999999996,35.024,33.943000000000005
35.125,35.213,34.743,36.53,35.009,33.968
35.084,35.22,34.839,36.535,34.996,33.993
35.042,35.225,34.946,36.531,34.986,34.018
34.998000000000005,35.23,35.063,36.521,34.978,34.044000000000004
34.954,35.234,35.19,36.503,34.973,34.071999999999996
34.911,35.238,35.324,36.48,34.969,34.101
34.87,35.241,35.461999999999996,36.451,34.967,34.132
34.830999999999996,35.245,35.602,36.418,34.965,34.166
34.795,35.247,35.74,36.381,34.964,34.205
34.764,35.249,35.874,36.343,34.961,34.249
34.736999999999995,35.249,36.001,36.303000000000004,34.957,34.3
34.716,35.248000000000005,36.119,36.262,34.951,34.359
34.701,35.244,36.226,36.222,34.942,34.426
34.692,35.239000000000004,36.32,36.181999999999995,34.93,34.501999999999995
34.689,35.233000000000004,36.4,36.144,34.916,34.586999999999996
34.693000000000005,35.226,36.465,36.106,34.898,34.681999999999995
34.704,35.218,36.515,36.07,34.878,34.787
34.722,35.209,36.549,36.033,34.855,34.899
34.746,35.2,36.568000000000005,35.997,34.830999999999996,35.019
34.775,35.191,36.573,35.961,34.805,35.144
34.809,35.181999999999995,36.563,35.926,34.777,35.273
34.847,35.173,36.542,35.891999999999996,34.749,35.404
34.887,35.163000000000004,36.51,35.86,34.719,35.534
34.929,35.153,36.47,35.829,34.69,35.662
34.97,35.144,36.423,35.801,34.661,35.783
35.01,35.135999999999996,36.371,35.775,34.634,35.898
35.047,35.129,36.314,35.751999999999995,34.608000000000004,36.001999999999995
35.08,35.126,36.254,35.732,34.585,36.096
35.11,35.126999999999995,36.193000000000005,35.713,34.565,36.178000000000004
35.135,35.134,36.13,35.696,34.548,36.247
35.155,35.149,36.068000000000005,35.681,34.535,36.303000000000004
35.171,35.171,36.007,35.666,34.525,36.347
35.181,35.203,35.948,35.650999999999996,34.518,36.378
35.187,35.243,35.891,35.637,34.514,36.398
35.187,35.294000000000004,35.836999999999996,35.622,34.512,36.408
35.183,35.356,35.785,35.606,34.512,36.407
35.176,35.428000000000004,35.736,35.589,34.514,36.397
35.164,35.51,35.69,35.571,34.518,36.378
35.149,35.603,35.647,35.552,34.524,36.353
35.131,35.705,35.608000000000004,35.533,34.531,36.321
35.11,35.814,35.571999999999996,35.514,34.54,36.284
35.086999999999996,35.929,35.539,35.495,34.55,36.242
35.062,36.047,35.509,35.477,34.561,36.198
35.034,36.166,35.482,35.461,34.574,36.150999999999996
35.004,36.282,35.457,35.446999999999996,34.588,36.103
34.973,36.394,35.435,35.434,34.603,36.055
34.939,36.499,35.414,35.423,34.619,36.009
34.904,36.595,35.393,35.415,34.637,35.964
34.867,36.68,35.373000000000005,35.408,34.655,35.921
34.827,36.755,35.352,35.403,34.675,35.881
34.785,36.816,35.330999999999996,35.400999999999996,34.696,35.845
34.742,36.864000000000004,35.308,35.4,34.717,35.812
34.696,36.898,35.285,35.402,34.74,35.782
34.649,36.917,35.259,35.407,34.762,35.756
34.6,36.923,35.232,35.414,34.784,35.733000000000004
34.551,36.914,35.204,35.424,34.806,35.714
34.501999999999995,36.891999999999996,35.173,35.436,34.826,35.696999999999996
34.452,36.859,35.143,35.449,34.845,35.684
34.403,36.815,35.111999999999995,35.465,34.863,35.673
34.353,36.762,35.082,35.481,34.881,35.665
34.303000000000004,36.7,35.053000000000004,35.497,34.9,35.658
34.254,36.633,35.027,35.513000000000005,34.919000000000004,35.653
34.205999999999996,36.559,35.001999999999995,35.529,34.939,35.649
34.159,36.482,34.981,35.545,34.961,35.646
34.114000000000004,36.400999999999996,34.963,35.559,34.985,35.643
34.07,36.319,34.948,35.571999999999996,35.01,35.64
34.027,36.236,34.936,35.583,35.038000000000004,35.635999999999996
33.985,36.153,34.927,35.592,35.068000000000005,35.631
33.944,36.073,34.922,35.6,35.103,35.625
33.905,35.996,34.919000000000004,35.606,35.141,35.616
33.867,35.924,34.919000000000004,35.61,35.185,35.607
33.833,35.855,34.923,35.613,35.235,35.596
33.801,35.792,34.929,35.615,35.291,35.584
33.773,35.733000000000004,34.938,35.614000000000004,35.353,35.573
33.747,35.678000000000004,34.95,35.611999999999995,35.421,35.562
33.725,35.628,34.964,35.608000000000004,35.494,35.551
33.704,35.582,34.98,35.602,35.571,35.542
33.686,35.54,34.999,35.595,35.653,35.534
33.67,35.501999999999995,35.019,35.586,35.736,35.525999999999996
33.656,35.467,35.04,35.575,35.82,35.52
33.644,35.436,35.06,35.563,35.902,35.515
33.633,35.407,35.08,35.549,35.982,35.512
33.624,35.38,35.099000000000004,35.534,36.056999999999995,35.509
33.615,35.354,35.117,35.518,36.126,35.507
33.608000000000004,35.327,35.132,35.5,36.187,35.506
33.601,35.299,35.146,35.482,36.241,35.506
33.597,35.269,35.158,35.463,36.285,35.507
33.594,35.238,35.168,35.445,36.32,35.509
33.594,35.204,35.175,35.426,36.346,35.513000000000005
33.595,35.168,35.18,35.409,36.363,35.516999999999996
33.599000000000004,35.13,35.181999999999995,35.391,36.37,35.522
33.603,35.09,35.181999999999995,35.374,36.369,35.527
33.608000000000004,35.049,35.18,35.357,36.359,35.533
33.613,35.007,35.174,35.34,36.342,35.538000000000004
33.618,34.965,35.166,35.324,36.317,35.543
33.623000000000005,34.924,35.154,35.308,36.285,35.548
33.628,34.884,35.14,35.292,36.246,35.552
33.633,34.848,35.122,35.277,36.202,35.554
33.638000000000005,34.815,35.102,35.263000000000005,36.152,35.555
33.641999999999996,34.787,35.079,35.25,36.099000000000004,35.554
33.648,34.766,35.054,35.236999999999995,36.043,35.552
33.653,34.751999999999995,35.025999999999996,35.226,35.985,35.548
33.659,34.745,34.998000000000005,35.215,35.926,35.542
33.667,34.746,34.969,35.207,35.867,35.535
33.675,34.755,34.939,35.2,35.808,35.525999999999996
33.686,34.77,34.91,35.196,35.751,35.514
33.698,34.791,34.881,35.193000000000005,35.696,35.5
33.711,34.817,34.852,35.192,35.644,35.484
33.724000000000004,34.847,34.825,35.192,35.597,35.466
33.738,34.88,34.797,35.192,35.553000000000004,35.446
33.75,34.915,34.771,35.193000000000005,35.514,35.425
33.762,34.953,34.746,35.193000000000005,35.478,35.402
33.772,34.991,34.723,35.193000000000005,35.446,35.379
33.782,35.03,34.701,35.191,35.418,35.356
33.79,35.069,34.681,35.187,35.391999999999996,35.332
33.796,35.108000000000004,34.662,35.183,35.368,35.309
33.801,35.146,34.644,35.177,35.347,35.286
33.805,35.181999999999995,34.626999999999995,35.172,35.328,35.264
33.806,35.216,34.611,35.166,35.311,35.242
33.806,35.247,34.597,35.161,35.294000000000004,35.221
33.805,35.274,34.583,35.157,35.278,35.2
33.802,35.3,34.57,35.153,35.263000000000005,35.18
33.798,35.321999999999996,34.558,35.149,35.247,35.159
33.794000000000004,35.343,34.545,35.146,35.231,35.137
33.789,35.361999999999995,34.532,35.144,35.216,35.115
33.783,35.379,34.519,35.14,35.199,35.092
33.778,35.393,34.506,35.137,35.183,35.068000000000005
33.771,35.405,34.491,35.132,35.165,35.044000000000004
33.764,35.413000000000004,34.476,35.126,35.148,35.021
33.757,35.419000000000004,34.461,35.12,35.13,34.998000000000005
33.749,35.42,34.446,35.113,35.111999999999995,34.976
33.741,35.417,34.431999999999995,35.105,35.095,34.955
33.734,35.41,34.419000000000004,35.098,35.079,34.935
33.727,35.399,34.408,35.091,35.065,34.916
33.721,35.385999999999996,34.397,35.085,35.053000000000004,34.897
33.715,35.369,34.388000000000005,35.08,35.044000000000004,34.879
33.71,35.351,34.379,35.078,35.039,34.861999999999995
33.705,35.33,34.371,35.077,35.038000000000004,34.845
33.7,35.309,34.364000000000004,35.078,35.041,34.828
33.696,35.285,34.356,35.080999999999996,35.049,34.812
33.693000000000005,35.260999999999996,34.349000000000004,35.086999999999996,35.061,34.797
33.691,35.236999999999995,34.342,35.095,35.077,34.782
33.69,35.213,34.335,35.105,35.097,34.769
33.692,35.188,34.328,35.119,35.119,34.756
33.696999999999996,35.165,34.321,35.137,35.144,34.744
33.705,35.141999999999996,34.314,35.159,35.17,34.734
33.719,35.122,34.306999999999995,35.188,35.196999999999996,34.724000000000004
33.74,35.104,34.298,35.224000000000004,35.224000000000004,34.715
33.77,35.088,34.289,35.268,35.251,34.707
33.812,35.074,34.277,35.321999999999996,35.278,34.7
33.866,35.062,34.264,35.385999999999996,35.303000000000004,34.694
33.934,35.051,34.249,35.459,35.327,34.689
34.018,35.041,34.233000000000004,35.543,35.349000000000004,34.683
34.118,35.032,34.214,35.635,35.37,34.676
34.235,35.025,34.194,35.734,35.389,34.668
34.367,35.019,34.171,35.836999999999996,35.406,34.659
34.514,35.014,34.144,35.944,35.42,34.649
34.674,35.01,34.114000000000004,36.05,35.433,34.638000000000005
34.843,35.007,34.08,36.154,35.443000000000005,34.626999999999995
35.018,35.005,34.042,36.253,35.45,34.616
35.196,35.004,34.001,36.346,35.454,34.605
35.372,35.001999999999995,33.955999999999996,36.431,35.455999999999996,34.594
35.543,35.001,33.909,36.507,35.454,34.582
35.705999999999996,34.998000000000005,33.859,36.571999999999996,35.45,34.571
35.859,34.995,33.806,36.626999999999995,35.442,34.559
35.998000000000005,34.991,33.751999999999995,36.67,35.431999999999995,34.548
36.122,34.986999999999995,33.696999999999996,36.701,35.42,34.537
36.229,34.983000000000004,33.64,36.721,35.407,34.525
36.318000000000005,34.978,33.583,36.73,35.393,34.514
36.387,34.974000000000004,33.525,36.728,35.376999999999995,34.503
36.438,34.97,33.466,36.715,35.361,34.492
36.469,34.967,33.408,36.693000000000005,35.343,34.482
36.482,34.964,33.35,36.662,35.325,34.472
36.478,34.961999999999996,33.293,36.624,35.306999999999995,34.461
36.46,34.96,33.238,36.58,35.289,34.451
36.428000000000004,34.959,33.184,36.534,35.271,34.44
36.385999999999996,34.96,33.133,36.485,35.251999999999995,34.428000000000004
36.335,34.961,33.086,36.434,35.233000000000004,34.416
36.278,34.964,33.045,36.384,35.214,34.404
36.216,34.968,33.009,36.334,35.195,34.391
36.15,34.974000000000004,32.981,36.286,35.175,34.378
36.083,34.981,32.961,36.24,35.156,34.364000000000004
36.015,34.99,32.952,36.196,35.135999999999996,34.35
35.948,34.999,32.953,36.155,35.117,34.336
35.881,35.01,32.966,36.116,35.098,34.32
35.817,35.021,32.993,36.08,35.08,34.304
35.756,35.034,33.033,36.046,35.063,34.288000000000004
35.699,35.046,33.09,36.015,35.048,34.272
35.644,35.06,33.163000000000004,35.986,35.034,34.256
35.593,35.073,33.251,35.958,35.021,34.241
35.545,35.086,33.355,35.933,35.010999999999996,34.225
35.501,35.098,33.475,35.91,35.001999999999995,34.21
35.459,35.109,33.607,35.888000000000005,34.995,34.195
35.42,35.117,33.751999999999995,35.868,34.988,34.179
35.384,35.123000000000005,33.907,35.849000000000004,34.983000000000004,34.164
35.35,35.126,34.068000000000005,35.830999999999996,34.978,34.15
35.317,35.126,34.234,35.813,34.974000000000004,34.135999999999996
35.286,35.124,34.402,35.796,34.97,34.123000000000005
35.255,35.121,34.569,35.778,34.967,34.113
35.225,35.116,34.733000000000004,35.76,34.965,34.104
35.196,35.111,34.889,35.741,34.963,34.099000000000004
35.167,35.105,35.037,35.721,34.961999999999996,34.098
35.137,35.1,35.174,35.699,34.961,34.103
35.105,35.095,35.299,35.676,34.96,34.116
35.073,35.09,35.412,35.652,34.959,34.137
35.038000000000004,35.086999999999996,35.51,35.626,34.958,34.168
35.001,35.086999999999996,35.596,35.599000000000004,34.957,34.211999999999996
34.961999999999996,35.09,35.669000000000004,35.571999999999996,34.955999999999996,34.268
34.921,35.099000000000004,35.731,35.545,34.954,34.336
34.878,35.115,35.782,35.519,34.953,34.418
34.834,35.139,35.823,35.494,34.951,34.513000000000005
34.791,35.175,35.857,35.472,34.948,34.619
