Trial 1:0back,Trial 2:2back,Trial 3:3back,Trial 4:2back,Trial 5:3back,Trial 6:0back
34.772,36.649,30.548000000000002,33.330999999999996,32.028,37.512
34.718,36.576,30.497,33.25,31.997,37.388000000000005
34.665,36.510999999999996,30.448,33.171,31.967,37.262
34.613,36.453,30.4,33.094,31.941,37.137
34.563,36.399,30.353,33.019,31.92,37.010999999999996
34.515,36.351,30.307,32.946,31.906,36.885
34.467,36.306,30.259,32.874,31.903000000000002,36.760999999999996
34.419000000000004,36.263000000000005,30.211,32.803000000000004,31.918000000000003,36.637
34.37,36.223,30.163,32.733000000000004,31.958000000000002,36.516
34.321999999999996,36.184,30.115,32.663000000000004,32.029,36.397
34.274,36.146,30.068,32.594,32.141,36.284
34.227,36.11,30.024,32.527,32.3,36.177
34.18,36.073,29.980999999999998,32.463,32.516,36.077
34.135,36.036,29.939,32.4,32.793,35.985
34.092,35.996,29.899,32.336999999999996,33.133,35.904
34.051,35.954,29.86,32.275999999999996,33.537,35.834
34.010999999999996,35.907,29.820999999999998,32.215,34.004,35.775
33.972,35.855,29.781999999999996,32.155,34.525999999999996,35.73
33.936,35.799,29.744,32.094,35.097,35.699
33.902,35.739000000000004,29.706,32.033,35.704,35.683
33.87,35.675,29.669,31.971999999999998,36.335,35.681
33.841,35.606,29.631999999999998,31.910999999999998,36.976,35.693000000000005
33.812,35.535,29.596999999999998,31.851999999999997,37.613,35.717
33.784,35.46,29.565,31.796,38.23,35.751999999999995
33.756,35.381,29.538,31.744,38.815,35.796
33.728,35.298,29.516,31.699,39.356,35.846
33.699,35.211,29.502,31.660999999999998,39.843,35.900999999999996
33.671,35.118,29.499000000000002,31.636999999999997,40.268,35.961
33.643,35.023,29.51,31.63,40.625,36.021
33.615,34.924,29.54,31.648000000000003,40.911,36.079
33.586999999999996,34.821,29.596999999999998,31.697,41.126000000000005,36.132
33.556999999999995,34.716,29.69,31.787,41.272,36.181
33.525999999999996,34.608000000000004,29.828000000000003,31.924,41.353,36.223
33.494,34.499,30.022,32.117,41.373999999999995,36.259
33.46,34.388000000000005,30.281999999999996,32.371,41.342,36.287
33.424,34.275999999999996,30.619,32.69,41.263999999999996,36.306999999999995
33.387,34.164,31.039,33.074,41.148999999999994,36.318000000000005
33.348,34.055,31.548000000000002,33.519,41.005,36.32
33.31,33.949,32.144,34.022,40.841,36.311
33.27,33.847,32.823,34.573,40.662,36.292
33.23,33.749,33.574,35.161,40.476,36.265
33.191,33.655,34.385,35.773,40.287,36.228
33.152,33.564,35.238,36.395,40.102,36.184
33.117,33.475,36.111,37.016,39.923,36.133
33.086999999999996,33.389,36.986,37.623000000000005,39.751999999999995,36.075
33.064,33.303000000000004,37.84,38.203,39.59,36.010999999999996
33.049,33.218,38.657,38.746,39.441,35.939
33.046,33.133,39.418,39.246,39.304,35.861999999999995
33.055,33.05,40.109,39.694,39.178000000000004,35.78
33.079,32.967,40.72,40.089,39.061,35.693000000000005
33.12,32.882,41.243,40.426,38.952,35.602
33.18,32.796,41.675,40.707,38.85,35.51
33.262,32.707,42.015,40.933,38.753,35.415
33.365,32.616,42.265,41.104,38.659,35.319
33.49,32.523,42.431999999999995,41.225,38.566,35.222
33.634,32.428000000000004,42.521,41.299,38.473,35.126
33.798,32.327,42.541000000000004,41.333,38.379,35.03
33.978,32.213,42.5,41.332,38.284,34.935
34.174,32.086999999999996,42.408,41.301,38.185,34.84
34.384,31.951,42.275,41.247,38.082,34.746
34.606,31.811,42.111000000000004,41.174,37.975,34.653
34.841,31.671,41.924,41.086000000000006,37.861,34.56
35.089,31.535999999999998,41.723,40.986999999999995,37.741,34.467
35.349000000000004,31.412,41.516000000000005,40.881,37.616,34.375
35.621,31.301,41.308,40.77,37.488,34.283
35.906,31.205,41.106,40.658,37.357,34.193000000000005
36.205,31.124000000000002,40.913000000000004,40.547,37.227,34.104
36.516999999999996,31.057,40.731,40.44,37.098,34.018
36.839,31.005,40.562,40.336999999999996,36.972,33.934
37.171,30.967,40.408,40.239000000000004,36.851,33.853
37.506,30.94,40.265,40.146,36.736,33.773
37.84,30.921999999999997,40.134,40.058,36.626999999999995,33.693000000000005
38.166,30.909000000000002,40.01,39.975,36.525,33.614000000000004
38.477,30.898000000000003,39.893,39.897,36.433,33.533
38.765,30.889,39.78,39.821999999999996,36.351,33.451
39.025999999999996,30.877,39.671,39.75,36.278,33.367
39.253,30.862,39.564,39.677,36.215,33.281
39.444,30.842,39.457,39.604,36.163000000000004,33.192
39.594,30.82,39.349000000000004,39.527,36.121,33.101
39.703,30.794,39.238,39.448,36.091,33.01
39.772,30.769000000000002,39.124,39.365,36.07,32.919000000000004
39.803000000000004,30.746,39.006,39.278,36.059,32.830999999999996
39.799,30.726,38.884,39.188,36.059,32.747
39.764,30.715,38.756,39.093,36.066,32.668
39.704,30.715999999999998,38.623000000000005,38.996,36.08,32.594
39.621,30.733,38.484,38.897,36.098,32.524
39.521,30.773000000000003,38.335,38.798,36.119,32.458
39.407,30.840999999999998,38.175,38.699,36.141999999999996,32.397
39.283,30.945999999999998,38.007,38.601,36.164,32.339
39.154,31.095,37.834,38.505,36.186,32.284
39.024,31.295,37.659,38.411,36.205999999999996,32.232
38.898,31.548000000000002,37.485,38.321,36.223,32.181
38.777,31.86,37.318000000000005,38.233000000000004,36.236999999999995,32.131
38.664,32.231,37.158,38.150999999999996,36.245,32.083
38.556999999999995,32.659,37.01,38.075,36.248000000000005,32.036
38.457,33.141,36.873000000000005,38.007,36.246,31.99
38.361999999999995,33.67,36.75,37.946999999999996,36.238,31.948
38.27,34.238,36.64,37.895,36.222,31.908
38.18,34.835,36.543,37.851,36.2,31.872
38.09,35.45,36.46,37.815,36.172,31.839000000000002
38.001,36.071,36.388000000000005,37.788000000000004,36.137,31.809
37.91,36.685,36.328,37.77,36.096,31.781999999999996
37.819,37.279,36.279,37.76,36.048,31.758000000000003
37.727,37.842,36.24,37.758,35.995,31.734
37.635,38.365,36.209,37.762,35.935,31.71
37.544000000000004,38.84,36.185,37.771,35.869,31.684
37.452,39.26,36.168,37.784,35.797,31.656
37.361,39.62,36.156,37.8,35.719,31.625
37.269,39.919000000000004,36.147,37.817,35.639,31.590999999999998
37.176,40.156,36.141999999999996,37.833,35.556,31.554000000000002
37.082,40.33,36.138000000000005,37.846,35.471,31.514
36.988,40.445,36.135999999999996,37.853,35.383,31.473000000000003
36.895,40.503,36.134,37.855,35.296,31.43
36.804,40.508,36.132,37.851,35.207,31.386
36.717,40.468,36.128,37.842,35.118,31.342
36.635,40.388000000000005,36.121,37.827,35.028,31.299
36.556999999999995,40.274,36.111,37.806999999999995,34.939,31.258000000000003
36.483000000000004,40.134,36.096,37.781,34.851,31.22
36.412,39.974000000000004,36.076,37.748000000000005,34.764,31.185
36.345,39.798,36.052,37.708,34.679,31.151999999999997
36.282,39.614000000000004,36.021,37.662,34.595,31.121
36.224000000000004,39.425,35.984,37.608000000000004,34.513000000000005,31.093000000000004
36.17,39.233000000000004,35.942,37.547,34.433,31.065
36.121,39.043,35.896,37.479,34.353,31.041
36.075,38.853,35.844,37.404,34.275999999999996,31.022
36.035,38.666,35.788000000000004,37.321,34.199,31.01
35.998000000000005,38.482,35.728,37.233000000000004,34.124,31.008000000000003
35.964,38.302,35.663000000000004,37.141999999999996,34.051,31.019000000000002
35.934,38.126999999999995,35.594,37.048,33.98,31.046999999999997
35.906,37.958,35.521,36.952,33.909,31.099
35.882,37.795,35.443000000000005,36.855,33.839,31.182
35.863,37.639,35.36,36.756,33.771,31.303
35.846,37.49,35.271,36.655,33.703,31.471
35.834,37.345,35.177,36.553000000000004,33.637,31.695
35.825,37.205,35.079,36.448,33.571999999999996,31.980999999999998
35.818000000000005,37.069,34.978,36.343,33.509,32.333
35.813,36.937,34.873000000000005,36.236,33.448,32.753
35.809,36.806999999999995,34.764,36.129,33.388000000000005,33.241
35.806,36.68,34.652,36.021,33.330999999999996,33.791
35.804,36.555,34.537,35.913000000000004,33.274,34.396
35.801,36.431999999999995,34.42,35.804,33.219,35.045
35.797,36.311,34.302,35.695,33.165,35.725
35.789,36.192,34.181,35.588,33.109,36.422
35.777,36.075,34.06,35.482,33.053000000000004,37.119
35.762,35.958,33.938,35.376,32.995,37.8
35.743,35.842,33.817,35.271,32.938,38.45
35.719,35.728,33.698,35.167,32.879,39.056
35.692,35.617,33.582,35.064,32.821,39.608000000000004
35.662,35.508,33.469,34.963,32.764,40.096
35.628,35.400999999999996,33.36,34.861999999999995,32.708,40.515
35.592,35.298,33.254,34.762,32.655,40.859
35.553000000000004,35.196999999999996,33.150999999999996,34.663000000000004,32.602,41.128
35.514,35.1,33.051,34.567,32.551,41.321999999999996
35.473,35.007,32.953,34.473,32.501,41.446000000000005
35.433,34.919000000000004,32.856,34.38,32.452,41.506
35.393,34.834,32.76,34.291,32.403,41.508
35.353,34.755,32.665,34.203,32.353,41.458999999999996
35.313,34.68,32.57,34.116,32.304,41.368
35.275,34.611999999999995,32.476,34.032,32.256,41.24100000000001
35.239000000000004,34.55,32.382,33.95,32.209,41.089
35.208,34.495,32.289,33.869,32.163000000000004,40.918
35.181,34.445,32.196,33.789,32.118,40.735
35.157,34.402,32.103,33.711999999999996,32.075,40.545
35.135999999999996,34.365,32.012,33.635999999999996,32.033,40.351
35.116,34.333,31.921,33.562,31.991,40.158
35.094,34.306999999999995,31.833000000000002,33.489000000000004,31.95,39.968
35.068000000000005,34.286,31.747,33.417,31.91,39.785
35.036,34.268,31.664,33.346,31.872,39.609
34.998000000000005,34.253,31.584,33.278,31.836,39.441
34.952,34.239000000000004,31.506,33.211999999999996,31.802,39.281
34.898,34.224000000000004,31.43,33.148,31.773000000000003,39.13
34.838,34.207,31.355,33.085,31.749000000000002,38.986999999999995
34.772,34.188,31.278000000000002,33.023,31.734,38.853
34.702,34.166,31.193,32.961999999999996,31.729,38.727
34.63,34.139,31.096999999999998,32.900999999999996,31.739,38.608000000000004
34.558,34.107,30.993000000000002,32.84,31.769000000000002,38.492
34.486,34.071,30.883000000000003,32.778,31.823,38.38
34.417,34.03,30.771,32.716,31.910999999999998,38.269
34.349000000000004,33.986,30.663,32.654,32.039,38.158
34.285,33.937,30.563000000000002,32.59,32.217,38.044000000000004
34.223,33.883,30.474,32.527,32.452,37.929
34.166,33.825,30.399,32.461999999999996,32.75,37.811
34.113,33.760999999999996,30.339000000000002,32.397,33.114000000000004,37.69
34.063,33.693000000000005,30.293000000000003,32.332,33.541,37.567
34.015,33.622,30.26,32.268,34.03,37.441
33.968,33.556,30.238000000000003,32.205999999999996,34.571999999999996,37.315
33.924,33.5,30.224,32.145,35.159,37.187
33.882,33.454,30.215999999999998,32.085,35.778,37.061
33.841,33.417,30.21,32.028,36.417,36.938
33.801,33.385,30.205,31.971999999999998,37.06,36.817
33.762,33.353,30.198,31.918000000000003,37.692,36.7
33.723,33.318000000000005,30.186,31.865,38.298,36.586999999999996
33.684,33.275999999999996,30.169,31.815,38.866,36.478
33.645,33.226,30.146,31.768,39.384,36.376
33.605,33.165,30.116,31.725,39.842,36.281
33.566,33.093,30.08,31.686999999999998,40.234,36.196
33.525999999999996,33.009,30.038,31.658,40.555,36.122
33.486999999999995,32.914,29.991999999999997,31.639,40.804,36.061
33.446999999999996,32.809,29.941999999999997,31.636,40.982,36.014
33.408,32.696999999999996,29.89,31.654,41.093,35.98
33.369,32.580999999999996,29.835,31.7,41.143,35.96
33.33,32.463,29.78,31.779,41.138000000000005,35.953
33.289,32.345,29.726,31.899,41.086000000000006,35.959
33.249,32.23,29.671999999999997,32.068000000000005,40.995,35.976
33.208,32.12,29.619,32.293,40.874,36.003
33.169000000000004,32.014,29.565,32.578,40.73,36.039
33.13,31.915,29.51,32.924,40.57,36.083
33.093,31.823,29.455,33.33,40.4,36.133
33.055,31.741,29.4,33.795,40.227,36.188
33.016999999999996,31.666999999999998,29.346999999999998,34.31,40.054,36.246
32.98,31.601999999999997,29.299,34.869,39.887,36.306
32.943000000000005,31.544,29.256,35.458,39.726,36.365
32.909,31.491999999999997,29.224,36.065,39.573,36.422
32.876999999999995,31.445,29.206,36.678000000000004,39.43,36.476
32.848,31.403000000000002,29.208000000000002,37.282,39.296,36.525
32.823,31.364,29.238000000000003,37.867,39.171,36.566
32.805,31.326999999999998,29.304000000000002,38.421,39.054,36.598
32.794000000000004,31.289,29.418000000000003,38.935,38.945,36.62
32.792,31.25,29.59,39.402,38.841,36.632
32.801,31.209,29.831,39.818000000000005,38.743,36.633
32.823,31.165,30.15,40.18,38.649,36.624
32.859,31.116999999999997,30.553,40.486,38.558,36.604
32.911,31.066999999999997,31.041999999999998,40.736999999999995,38.469,36.573
32.982,31.014,31.619,40.935,38.381,36.53
33.073,30.961,32.28,41.082,38.291,36.475
33.185,30.905,33.015,41.181000000000004,38.2,36.409
33.317,30.848000000000003,33.813,41.239,38.105,36.330999999999996
33.47,30.789,34.658,41.26,38.007,36.243
33.643,30.729,35.534,41.25,37.906,36.147
33.838,30.669,36.42,41.215,37.8,36.044000000000004
34.055,30.609,37.297,41.157,37.691,35.935
34.295,30.551,38.145,41.083,37.577,35.821
34.563,30.496,38.946,40.995,37.46,35.704
34.861999999999995,30.445999999999998,39.684,40.899,37.341,35.585
35.198,30.401999999999997,40.346,40.797,37.222,35.463
35.573,30.366,40.922,40.691,37.104,35.341
35.986999999999995,30.34,41.407,40.582,36.99,35.219
36.435,30.326,41.797,40.472,36.879,35.098
36.911,30.328000000000003,42.093,40.361999999999995,36.773,34.979
37.406,30.351999999999997,42.299,40.254,36.672,34.861999999999995
37.909,30.401999999999997,42.423,40.149,36.578,34.748000000000005
38.409,30.485,42.471000000000004,40.049,36.491,34.635999999999996
38.891999999999996,30.609,42.453,39.954,36.41,34.525999999999996
39.349000000000004,30.779,42.379,39.865,36.336999999999996,34.417
39.768,31.0,42.25899999999999,39.779,36.273,34.311
40.143,31.276999999999997,42.104,39.696999999999996,36.219,34.205999999999996
40.466,31.612,41.922,39.617,36.174,34.104
40.733000000000004,32.005,41.722,39.538000000000004,36.139,34.001999999999995
40.941,32.455,41.51,39.457,36.114000000000004,33.900999999999996
41.091,32.958,41.292,39.374,36.098,33.8
41.184,33.51,41.071999999999996,39.288000000000004,36.091,33.696
41.224,34.101,40.856,39.198,36.092,33.592
41.215,34.723,40.647,39.106,36.098,33.486999999999995
41.165,35.365,40.446,39.01,36.109,33.382
41.081,36.015,40.255,38.911,36.123000000000005,33.277
40.971000000000004,36.661,40.075,38.81,36.138000000000005,33.173
40.84,37.291,39.907,38.705999999999996,36.153,33.07
40.694,37.894,39.751,38.602,36.166,32.97
40.54,38.46,39.605,38.496,36.176,32.871
40.381,38.98,39.47,38.39,36.183,32.774
40.222,39.449,39.341,38.286,36.185,32.679
40.064,39.859,39.216,38.184,36.183,32.584
39.911,40.207,39.093,38.084,36.176,32.491
39.762,40.49,38.971,37.988,36.163000000000004,32.399
39.619,40.708,38.846,37.896,36.145,32.31
39.483000000000004,40.866,38.719,37.81,36.121,32.225
39.353,40.965,38.588,37.732,36.091,32.143
39.229,41.012,38.453,37.661,36.056,32.065
39.111,41.011,38.313,37.598,36.014,31.989
38.999,40.968999999999994,38.169000000000004,37.545,35.966,31.916
38.891,40.893,38.021,37.501999999999995,35.913000000000004,31.845
38.785,40.79,37.867,37.469,35.854,31.776999999999997
38.678000000000004,40.664,37.71,37.446999999999996,35.791,31.711
38.57,40.521,37.55,37.436,35.723,31.648000000000003
38.458,40.365,37.387,37.433,35.652,31.589000000000002
38.343,40.2,37.223,37.439,35.576,31.533
38.224000000000004,40.031,37.06,37.45,35.496,31.48
38.101,39.859,36.899,37.464,35.412,31.428
37.975,39.687,36.745,37.481,35.325,31.377
37.846,39.516,36.598,37.5,35.235,31.326999999999998
37.716,39.346,36.46,37.516999999999996,35.143,31.278000000000002
37.585,39.179,36.330999999999996,37.533,35.05,31.230999999999998
37.455999999999996,39.013000000000005,36.211999999999996,37.544000000000004,34.955999999999996,31.186999999999998
37.329,38.85,36.103,37.55,34.861,31.147
37.205999999999996,38.686,36.003,37.551,34.766,31.11
37.089,38.523,35.913000000000004,37.546,34.671,31.074
36.977,38.359,35.830999999999996,37.536,34.574,31.038
36.872,38.195,35.757,37.52,34.476,31.002
36.774,38.028,35.692,37.497,34.378,30.963
36.684,37.86,35.634,37.467,34.28,30.921999999999997
36.599000000000004,37.691,35.585,37.429,34.181999999999995,30.88
36.52,37.52,35.543,37.383,34.086,30.836
36.446,37.35,35.509,37.329,33.993,30.791999999999998
36.376999999999995,37.18,35.481,37.266999999999996,33.903,30.747
36.314,37.009,35.458,37.198,33.817,30.703000000000003
36.257,36.839,35.44,37.121,33.735,30.66
36.205999999999996,36.67,35.425,37.038000000000004,33.656,30.616999999999997
36.161,36.503,35.412,36.95,33.582,30.574
36.122,36.338,35.399,36.858000000000004,33.51,30.531
36.086999999999996,36.177,35.385,36.764,33.441,30.489
36.054,36.019,35.37,36.667,33.375,30.447
36.024,35.865,35.354,36.568000000000005,33.312,30.406999999999996
35.996,35.718,35.335,36.467,33.253,30.37
35.97,35.576,35.313,36.363,33.196999999999996,30.335
35.946999999999996,35.442,35.288000000000004,36.258,33.141999999999996,30.302
35.926,35.315,35.257,36.150999999999996,33.089,30.271
35.909,35.196,35.22,36.043,33.037,30.241999999999997
35.894,35.086,35.178000000000004,35.935,32.986999999999995,30.212
35.88,34.985,35.126999999999995,35.825,32.936,30.183000000000003
35.858000000000004,34.893,35.068000000000005,35.711999999999996,32.885,30.156999999999996
35.824,34.808,35.001999999999995,35.598,32.834,30.134
35.78,34.731,34.929,35.484,32.783,30.118000000000002
35.728,34.661,34.851,35.371,32.733000000000004,30.115
35.674,34.597,34.768,35.26,32.683,30.129
35.62,34.538000000000004,34.683,35.150999999999996,32.634,30.168000000000003
35.571,34.484,34.596,35.044000000000004,32.586,30.24
35.529,34.433,34.507,34.941,32.539,30.355
35.496,34.383,34.417,34.84,32.491,30.525
35.47,34.336,34.326,34.742,32.444,30.76
35.451,34.291,34.232,34.645,32.398,31.069000000000003
35.438,34.249,34.137,34.55,32.351,31.461
35.43,34.21,34.039,34.455,32.305,31.936999999999998
35.427,34.175,33.939,34.361999999999995,32.26,32.499
35.425,34.143,33.836,34.269,32.217,33.141999999999996
35.424,34.114000000000004,33.732,34.178000000000004,32.175,33.857
35.421,34.086,33.626,34.09,32.135,34.633
35.414,34.056999999999995,33.518,34.003,32.097,35.454
35.402,34.028,33.408,33.918,32.06,36.302
35.382,33.996,33.297,33.834,32.024,37.16
35.355,33.961999999999996,33.185,33.751999999999995,31.988000000000003,38.006
35.321,33.924,33.071,33.673,31.951999999999998,38.823
35.281,33.883,32.959,33.596,31.916,39.593
35.236,33.836999999999996,32.847,33.52,31.88,40.3
35.186,33.788000000000004,32.739000000000004,33.445,31.845,40.934
35.132,33.734,32.633,33.372,31.811,41.485
35.076,33.675,32.535,33.298,31.778000000000002,41.946999999999996
35.016999999999996,33.611999999999995,32.451,33.225,31.745,42.317
34.957,33.545,32.381,33.150999999999996,31.713,42.596000000000004
34.896,33.476,32.323,33.077,31.680999999999997,42.788000000000004
34.836,33.406,32.272,33.003,31.651,42.898
34.775999999999996,33.334,32.224000000000004,32.93,31.621,42.93600000000001
34.719,33.263000000000005,32.175,32.857,31.590999999999998,42.91
34.662,33.193000000000005,32.121,32.786,31.56,42.83
34.606,33.124,32.059,32.717,31.526999999999997,42.707
34.551,33.056,31.988000000000003,32.650999999999996,31.483,42.552
34.496,32.989000000000004,31.906,32.586,31.425,42.373999999999995
34.441,32.923,31.811,32.523,31.358,42.181999999999995
34.387,32.858000000000004,31.706,32.461999999999996,31.287,41.983000000000004
34.332,32.791,31.590999999999998,32.403,31.223000000000003,41.782
34.278,32.724000000000004,31.469,32.346,31.175,41.583999999999996
34.224000000000004,32.656,31.342,32.291,31.153000000000002,41.39
34.169000000000004,32.585,31.212,32.236999999999995,31.166999999999998,41.20399999999999
34.113,32.510999999999996,31.083000000000002,32.184,31.228,41.025
34.056,32.436,30.958000000000002,32.133,31.346,40.856
33.999,32.36,30.838,32.083,31.526999999999997,40.696
33.943000000000005,32.283,30.726,32.035,31.781,40.545
33.887,32.207,30.621,31.987,32.11,40.404
33.834,32.13,30.524,31.941,32.514,40.271
33.784,32.056,30.433000000000003,31.895,32.992,40.146
33.736999999999995,31.982,30.349,31.85,33.537,40.027
33.693000000000005,31.910999999999998,30.272,31.804000000000002,34.14,39.912
33.65,31.842,30.2,31.76,34.79,39.799
33.607,31.776,30.133000000000003,31.715,35.472,39.689
33.564,31.714000000000002,30.070999999999998,31.671999999999997,36.174,39.580999999999996
33.52,31.655,30.014,31.629,36.879,39.472
33.477,31.6,29.96,31.585,37.571,39.363
33.433,31.546,29.909000000000002,31.541,38.235,39.25
33.389,31.493000000000002,29.86,31.496,38.856,39.135
33.344,31.441999999999997,29.814,31.449,39.422,39.015
33.298,31.391,29.769000000000002,31.4,39.924,38.891
33.251,31.339000000000002,29.726,31.349,40.356,38.760999999999996
33.202,31.287,29.684,31.298000000000002,40.713,38.628
33.153,31.234,29.642,31.248,40.994,38.491
33.102,31.180999999999997,29.599,31.201999999999998,41.199,38.353
33.051,31.125999999999998,29.555999999999997,31.164,41.332,38.214
33.0,31.070999999999998,29.51,31.138,41.397,38.076
32.949,31.017,29.463,31.125,41.402,37.94
32.9,30.961,29.414,31.131999999999998,41.355,37.806999999999995
32.852,30.904,29.364,31.163,41.263000000000005,37.678000000000004
32.808,30.846,29.314,31.225,41.136,37.556
32.768,30.787,29.264,31.326,40.982,37.441
32.736999999999995,30.726,29.215,31.47,40.809,37.336
32.717,30.664,29.166999999999998,31.665,40.624,37.241
32.707,30.601,29.119,31.918000000000003,40.433,37.159
32.704,30.54,29.073,32.233000000000004,40.242,37.09
32.707,30.482,29.026999999999997,32.61,40.055,37.036
32.711,30.43,28.980999999999998,33.047,39.876,36.995
32.716,30.385,28.935,33.54,39.707,36.968
32.718,30.351,28.886999999999997,34.080999999999996,39.547,36.954
32.716,30.33,28.84,34.661,39.397,36.953
32.71,30.326,28.795,35.27,39.258,36.965
32.7,30.342,28.754,35.895,39.129,36.988
32.689,30.385,28.719,36.523,39.009,37.021
32.677,30.464000000000002,28.693,37.141999999999996,38.897,37.06
32.67,30.589000000000002,28.682,37.74,38.792,37.105
32.671,30.767,28.693,38.308,38.693000000000005,37.150999999999996
32.684,31.006,28.737,38.835,38.6,37.198
32.713,31.311999999999998,28.822,39.316,38.508,37.244
32.762,31.691,28.962,39.744,38.418,37.288000000000004
32.833,32.144,29.169,40.117,38.327,37.326
32.927,32.672,29.453000000000003,40.431999999999995,38.234,37.357
33.045,33.274,29.824,40.691,38.137,37.381
33.187,33.943000000000005,30.289,40.897,38.036,37.396
33.351,34.673,30.848000000000003,41.052,37.933,37.403
33.537,35.453,31.500999999999998,41.159,37.83,37.400999999999996
33.741,36.27,32.243,41.222,37.726,37.391
33.965,37.111,33.062,41.246,37.62,37.373000000000005
34.205999999999996,37.959,33.946999999999996,41.236999999999995,37.513000000000005,37.346
34.464,38.798,34.878,41.199,37.403,37.311
34.738,39.614000000000004,35.836,41.136,37.292,37.266999999999996
35.028,40.391999999999996,36.801,41.052,37.18,37.216
35.336,41.119,37.751,40.952,37.068000000000005,37.156
35.661,41.786,38.667,40.84,36.955999999999996,37.088
36.001,42.382,39.529,40.721,36.845,37.013000000000005
36.353,42.903,40.32,40.598,36.736999999999995,36.931
36.711,43.343999999999994,41.028,40.474000000000004,36.632,36.841
37.071,43.70399999999999,41.643,40.351,36.533,36.744
37.423,43.985,42.16,40.232,36.44,36.64
37.76,44.188,42.576,40.118,36.356,36.532
38.075,44.317,42.893,40.01,36.282,36.419000000000004
38.36,44.376999999999995,43.11600000000001,39.907,36.218,36.304
38.611999999999995,44.376000000000005,43.251000000000005,39.811,36.165,36.186
38.826,44.321000000000005,43.308,39.719,36.123000000000005,36.066
38.999,44.22,43.295,39.632,36.091,35.942
39.132,44.08,43.225,39.548,36.068000000000005,35.816
39.224000000000004,43.909,43.107,39.467,36.053000000000004,35.688
39.279,43.717,42.951,39.385999999999996,36.047,35.558
39.299,43.50899999999999,42.766999999999996,39.304,36.046,35.428000000000004
39.287,43.291000000000004,42.56399999999999,39.219,36.052,35.297
39.247,43.067,42.348,39.13,36.061,35.167
39.184,42.842,42.126999999999995,39.038000000000004,36.075,35.038000000000004
39.101,42.618,41.905,38.943000000000005,36.091,34.91
39.004,42.397,41.687,38.844,36.108000000000004,34.782
38.896,42.18,41.474,38.743,36.125,34.657
38.782,41.966,41.268,38.639,36.14,34.534
38.666,41.757,41.071000000000005,38.534,36.155,34.413000000000004
38.549,41.553999999999995,40.883,38.429,36.167,34.296
38.435,41.356,40.702,38.323,36.174,34.181
38.323,41.162,40.53,38.217,36.176,34.069
38.215,40.972,40.365,38.111,36.172,33.958
38.111999999999995,40.785,40.207,38.005,36.16,33.849000000000004
38.013000000000005,40.598,40.056,37.900999999999996,36.14,33.741
37.919000000000004,40.411,39.909,37.8,36.11,33.635
37.828,40.222,39.765,37.704,36.073,33.53
37.741,40.03,39.623000000000005,37.615,36.029,33.428000000000004
37.657,39.836999999999996,39.483000000000004,37.536,35.977,33.329
37.576,39.641,39.344,37.467,35.917,33.233000000000004
37.498000000000005,39.443000000000005,39.205,37.409,35.851,33.137
37.421,39.245,39.066,37.361999999999995,35.779,33.044000000000004
37.345,39.046,38.925,37.327,35.702,32.951
37.268,38.849000000000004,38.783,37.302,35.618,32.86
37.191,38.654,38.639,37.287,35.531,32.772
37.111999999999995,38.464,38.494,37.279,35.441,32.687
37.032,38.28,38.346,37.278,35.348,32.608000000000004
36.952,38.105,38.196,37.282,35.255,32.535
36.87,37.939,38.045,37.29,35.16,32.467
36.788000000000004,37.784,37.893,37.299,35.066,32.403
36.705999999999996,37.64,37.741,37.308,34.972,32.342
36.623000000000005,37.506,37.591,37.318000000000005,34.876,32.283
36.54,37.384,37.443000000000005,37.327,34.781,32.226
36.458,37.271,37.298,37.335,34.686,32.169000000000004
36.376,37.168,37.158,37.339,34.593,32.114000000000004
36.295,37.071999999999996,37.024,37.341,34.501,32.058
36.216,36.984,36.896,37.34,34.41,32.001999999999995
36.14,36.902,36.773,37.336,34.321999999999996,31.944000000000003
36.068000000000005,36.827,36.657,37.327,34.236,31.886
36.001,36.757,36.546,37.314,34.150999999999996,31.826
35.94,36.691,36.443000000000005,37.297,34.067,31.766
35.883,36.63,36.347,37.273,33.984,31.708000000000002
35.832,36.571999999999996,36.259,37.243,33.900999999999996,31.651
35.787,36.516999999999996,36.179,37.204,33.819,31.596
35.747,36.464,36.107,37.157,33.736,31.543000000000003
35.713,36.414,36.044000000000004,37.101,33.655,31.493000000000002
35.687,36.366,35.991,37.038000000000004,33.576,31.444000000000003
35.666,36.321,35.945,36.969,33.499,31.396
35.652,36.278,35.906,36.891999999999996,33.423,31.349
35.644,36.235,35.874,36.809,33.348,31.302
35.641,36.191,35.846,36.721,33.277,31.254
35.641999999999996,36.145,35.821999999999996,36.629,33.208,31.204
35.648,36.096,35.8,36.534,33.141999999999996,31.151999999999997
35.656,36.043,35.779,36.436,33.076,31.099
35.666,35.986,35.759,36.336,33.013000000000005,31.045
35.677,35.925,35.739000000000004,36.234,32.953,30.99
35.688,35.86,35.72,36.13,32.896,30.933000000000003
35.696999999999996,35.792,35.698,36.025,32.84,30.875
35.705,35.721,35.674,35.92,32.788000000000004,30.815
35.71,35.647,35.646,35.816,32.736999999999995,30.754
35.709,35.57,35.613,35.711999999999996,32.687,30.691
35.703,35.489000000000004,35.574,35.609,32.638000000000005,30.63
35.692,35.406,35.529,35.506,32.588,30.57
35.676,35.32,35.477,35.402,32.537,30.511999999999997
35.654,35.232,35.417,35.298,32.486,30.458000000000002
35.626999999999995,35.14,35.35,35.194,32.434,30.41
35.595,35.046,35.275999999999996,35.089,32.383,30.37
35.559,34.951,35.196,34.984,32.334,30.343000000000004
35.518,34.855,35.108000000000004,34.878,32.286,30.335
35.473,34.759,35.013000000000005,34.771,32.239000000000004,30.353
35.426,34.662,34.911,34.665,32.195,30.404
35.378,34.566,34.803000000000004,34.56,32.150999999999996,30.499000000000002
35.33,34.47,34.69,34.457,32.11,30.648000000000003
35.285,34.376,34.571999999999996,34.356,32.069,30.86
35.241,34.282,34.451,34.257,32.029,31.144000000000002
35.199,34.188,34.327,34.159,31.99,31.509
35.16,34.094,34.203,34.063,31.951999999999998,31.96
35.121,33.997,34.08,33.97,31.916,32.497
35.082,33.9,33.957,33.88,31.881,33.117
35.042,33.799,33.834,33.792,31.846999999999998,33.813
35.0,33.696999999999996,33.711,33.708,31.814,34.574
34.957,33.592,33.588,33.626999999999995,31.781,35.385
34.915,33.488,33.465,33.55,31.747,36.228
34.873000000000005,33.384,33.341,33.476,31.714000000000002,37.085
34.830999999999996,33.281,33.218,33.405,31.68,37.936
34.79,33.181999999999995,33.096,33.336999999999996,31.647,38.760999999999996
34.747,33.086999999999996,32.974000000000004,33.27,31.614,39.543
34.703,32.996,32.854,33.202,31.581999999999997,40.264
34.658,32.911,32.736,33.133,31.555,40.914
34.61,32.829,32.62,33.062,31.531,41.483999999999995
34.562,32.749,32.504,32.989000000000004,31.509,41.968999999999994
34.513000000000005,32.671,32.389,32.915,31.489,42.36600000000001
34.461999999999996,32.594,32.273,32.839,31.469,42.673
34.41,32.518,32.159,32.762,31.449,42.895
34.357,32.443000000000005,32.046,32.685,31.428,43.034
34.303000000000004,32.369,31.935,32.609,31.404,43.098
34.248000000000005,32.296,31.828000000000003,32.534,31.379,43.096000000000004
34.193000000000005,32.223,31.723000000000003,32.461,31.351999999999997,43.037
34.139,32.15,31.623,32.389,31.323,42.931000000000004
34.086999999999996,32.078,31.526999999999997,32.318000000000005,31.291999999999998,42.788000000000004
34.038000000000004,32.004,31.435,32.248000000000005,31.261,42.61600000000001
33.992,31.93,31.345,32.181,31.23,42.425
33.946999999999996,31.854,31.258000000000003,32.114000000000004,31.2,42.222
33.9,31.779,31.171999999999997,32.05,31.17,42.013000000000005
33.853,31.704,31.089000000000002,31.988000000000003,31.142,41.802
33.806,31.629,31.006999999999998,31.93,31.118000000000002,41.593999999999994
33.760999999999996,31.554000000000002,30.925,31.873,31.098000000000003,41.393
33.718,31.48,30.845,31.819000000000003,31.086,41.201
33.677,31.408,30.764,31.765,31.085,41.021
33.638000000000005,31.34,30.683000000000003,31.712,31.101999999999997,40.852
33.6,31.276,30.6,31.659000000000002,31.144000000000002,40.693000000000005
33.563,31.215,30.516,31.605999999999998,31.219,40.545
33.525999999999996,31.16,30.430999999999997,31.554000000000002,31.336,40.405
33.489000000000004,31.111,30.346999999999998,31.500999999999998,31.506,40.273
33.453,31.069000000000003,30.264,31.447,31.736,40.147
33.419000000000004,31.035999999999998,30.184,31.391,32.033,40.024
33.385999999999996,31.013,30.107,31.333000000000002,32.403,39.905
33.354,31.003,30.031999999999996,31.273000000000003,32.846,39.787
33.325,31.009,29.959,31.212,33.361,39.669000000000004
33.297,31.035999999999998,29.888,31.148000000000003,33.941,39.552
33.27,31.089000000000002,29.818,31.084,34.577,39.431999999999995
33.243,31.177,29.749000000000002,31.019000000000002,35.258,39.31
33.216,31.307,29.68,30.954,35.969,39.185
33.188,31.487,29.612,30.89,36.694,39.055
33.16,31.726999999999997,29.544,30.828000000000003,37.416,38.922
33.131,32.034,29.478,30.765,38.118,38.784
33.1,32.412,29.412,30.703000000000003,38.786,38.641
33.066,32.867,29.349,30.641,39.405,38.495
33.029,33.398,29.287,30.58,39.963,38.347
32.989000000000004,34.005,29.226999999999997,30.52,40.45,38.199
32.948,34.68,29.169,30.462,40.86,38.052
32.906,35.415,29.114,30.409000000000002,41.191,37.908
32.865,36.198,29.061999999999998,30.362,41.442,37.768
32.827,37.014,29.013,30.323,41.614,37.633
32.792,37.85,28.968000000000004,30.294,41.711999999999996,37.505
32.760999999999996,38.69,28.925,30.28,41.742,37.385999999999996
32.733000000000004,39.516,28.885,30.287,41.711999999999996,37.277
32.709,40.313,28.846,30.320999999999998,41.632,37.178000000000004
32.689,41.067,28.805,30.388,41.50899999999999,37.089
32.672,41.766999999999996,28.763,30.499000000000002,41.354,37.01
32.659,42.4,28.72,30.66,41.176,36.94
32.649,42.958999999999996,28.677,30.88,40.983999999999995,36.881
32.641999999999996,43.437,28.636,31.165,40.783,36.834
32.638000000000005,43.831,28.6,31.517,40.58,36.798
32.635999999999996,44.14,28.569000000000003,31.935,40.379,36.774
32.638000000000005,44.368,28.546999999999997,32.418,40.184,36.760999999999996
32.645,44.519,28.538,32.961,39.998000000000005,36.758
32.658,44.599,28.545,33.556,39.823,36.764
32.681,44.617,28.576,34.192,39.659,36.778
32.715,44.58,28.64,34.856,39.507,36.799
32.763000000000005,44.497,28.748,35.535,39.368,36.826
32.828,44.375,28.913,36.213,39.241,36.856
32.913000000000004,44.224,29.147,36.878,39.126,36.889
33.021,44.05,29.461,37.515,39.021,36.921
33.154,43.858000000000004,29.865,38.114000000000004,38.924,36.95
33.318000000000005,43.655,30.366,38.665,38.833,36.974000000000004
33.518,43.445,30.965,39.159,38.745,36.994
33.766,43.231,31.660999999999998,39.592,38.659,37.008
34.071,43.016999999999996,32.446999999999996,39.96,38.573,37.016
34.443000000000005,42.803999999999995,33.311,40.263000000000005,38.485,37.018
34.885999999999996,42.595,34.239000000000004,40.503,38.391,37.013000000000005
35.402,42.391000000000005,35.214,40.683,38.292,37.0
35.986999999999995,42.193000000000005,36.217,40.805,38.186,36.979
36.631,42.001999999999995,37.227,40.876999999999995,38.074,36.949
37.321,41.816,38.223,40.905,37.955999999999996,36.91
38.042,41.63399999999999,39.181,40.896,37.833,36.865
38.777,41.456,40.083,40.856,37.705999999999996,36.811
39.508,41.278999999999996,40.912,40.79,37.575,36.75
40.218,41.102,41.652,40.704,37.442,36.681
40.889,40.924,42.293,40.602,37.308,36.606
41.50899999999999,40.744,42.827,40.489000000000004,37.174,36.524
42.065,40.563,43.251999999999995,40.369,37.043,36.437
42.551,40.381,43.568999999999996,40.244,36.915,36.343
42.958999999999996,40.198,43.781000000000006,40.117,36.793,36.245
43.288000000000004,40.015,43.896,39.991,36.678000000000004,36.14
43.537,39.830999999999996,43.924,39.868,36.571999999999996,36.03
43.706,39.647,43.876999999999995,39.748000000000005,36.476,35.913000000000004
43.8,39.461999999999996,43.769,39.632,36.391,35.789
43.824,39.278,43.611999999999995,39.522,36.316,35.66
43.785,39.095,43.42100000000001,39.416,36.254,35.527
43.692,38.915,43.205,39.315,36.205,35.391
43.553000000000004,38.739000000000004,42.976000000000006,39.218,36.169000000000004,35.251999999999995
43.375,38.569,42.74100000000001,39.124,36.146,35.111
43.169,38.406,42.507,39.033,36.135,34.969
42.94,38.25,42.281000000000006,38.942,36.134,34.827
42.698,38.102,42.065,38.851,36.141,34.685
42.45,37.961999999999996,41.861999999999995,38.759,36.155,34.545
42.202,37.83,41.673,38.666,36.175,34.408
41.958999999999996,37.707,41.497,38.571,36.196999999999996,34.274
41.723,37.593,41.335,38.474000000000004,36.221,34.144
41.497,37.486999999999995,41.183,38.374,36.247,34.018
41.283,37.391,41.041000000000004,38.272,36.271,33.896
41.08,37.305,40.905,38.168,36.294000000000004,33.777
40.889,37.229,40.773,38.064,36.312,33.661
40.71,37.161,40.643,37.959,36.324,33.546
40.54,37.101,40.513000000000005,37.854,36.329,33.431999999999995
40.38,37.047,40.382,37.749,36.327,33.319
40.227,36.997,40.247,37.647,36.318000000000005,33.208
40.08,36.953,40.107,37.546,36.3,33.097
39.937,36.913000000000004,39.96,37.449,36.273,32.989000000000004
39.798,36.876999999999995,39.808,37.355,36.238,32.884
39.663000000000004,36.844,39.648,37.266,36.198,32.782
39.529,36.812,39.481,37.185,36.150999999999996,32.684
39.395,36.783,39.306,37.111,36.098,32.59
39.260999999999996,36.754,39.126,37.046,36.041,32.5
39.126,36.724000000000004,38.94,36.991,35.981,32.413000000000004
38.991,36.693000000000005,38.753,36.946999999999996,35.918,32.330999999999996
38.856,36.661,38.566,36.913000000000004,35.851,32.251
38.721,36.626999999999995,38.38,36.891,35.78,32.173
38.585,36.592,38.198,36.878,35.705999999999996,32.096
38.449,36.556999999999995,38.021,36.874,35.628,32.019
38.314,36.52,37.851,36.876999999999995,35.544000000000004,31.941999999999997
38.18,36.481,37.689,36.885999999999996,35.455,31.865
38.047,36.437,37.535,36.9,35.363,31.788
37.918,36.388000000000005,37.388000000000005,36.917,35.266999999999996,31.71
37.793,36.332,37.248000000000005,36.936,35.169000000000004,31.631
37.672,36.266,37.117,36.954,35.069,31.552
37.555,36.19,36.994,36.971,34.969,31.471999999999998
37.442,36.106,36.88,36.983000000000004,34.869,31.391
37.334,36.012,36.774,36.992,34.77,31.311
37.232,35.912,36.675,36.995,34.671,31.232
37.135,35.806,36.584,36.992,34.573,31.155
37.044000000000004,35.695,36.5,36.983000000000004,34.477,31.08
36.955999999999996,35.582,36.422,36.967,34.381,31.01
36.872,35.468,36.35,36.946,34.286,30.941999999999997
36.792,35.355,36.283,36.917,34.192,30.877
36.716,35.244,36.219,36.882,34.099000000000004,30.816
36.645,35.135,36.16,36.841,34.009,30.756999999999998
36.578,35.029,36.106,36.793,33.92,30.701
36.516,34.927,36.058,36.738,33.830999999999996,30.646
36.461,34.829,36.014,36.678000000000004,33.743,30.59
36.412,34.734,35.974000000000004,36.611999999999995,33.658,30.534000000000002
36.37,34.643,35.939,36.54,33.573,30.475
36.335,34.554,35.907,36.463,33.49,30.415
36.308,34.467,35.878,36.381,33.408,30.353
36.287,34.381,35.851,36.294000000000004,33.33,30.289
36.27,34.296,35.824,36.203,33.254,30.224
36.256,34.211999999999996,35.796,36.108000000000004,33.181,30.156
36.244,34.126999999999995,35.766,36.009,33.109,30.087
36.233000000000004,34.043,35.733000000000004,35.907,33.04,30.018
36.222,33.955999999999996,35.696999999999996,35.801,32.972,29.95
36.211,33.868,35.657,35.691,32.903,29.884
36.196,33.778,35.61,35.579,32.834,29.82
36.178000000000004,33.684,35.556999999999995,35.465,32.765,29.761
36.155,33.588,35.497,35.349000000000004,32.696999999999996,29.706999999999997
36.129,33.489000000000004,35.43,35.232,32.63,29.66
36.096,33.388000000000005,35.355,35.113,32.565,29.625
36.056,33.286,35.273,34.992,32.501,29.604
36.009,33.181999999999995,35.181999999999995,34.871,32.44,29.605999999999998
35.958,33.079,35.084,34.75,32.382,29.636
35.904,32.978,34.978,34.628,32.327,29.704
35.849000000000004,32.878,34.866,34.506,32.274,29.819000000000003
35.794000000000004,32.783,34.748000000000005,34.385,32.224000000000004,29.991
35.74,32.691,34.626,34.266,32.176,30.230999999999998
35.687,32.604,34.505,34.147,32.131,30.546999999999997
35.635,32.523,34.385999999999996,34.031,32.09,30.945999999999998
35.584,32.448,34.271,33.917,32.06,31.433000000000003
35.534,32.379,34.159,33.806,32.044000000000004,32.008
35.486,32.315,34.049,33.698,32.04,32.667
35.441,32.257,33.941,33.592,32.044000000000004,33.4
35.397,32.204,33.832,33.49,32.051,34.196999999999996
35.355,32.154,33.723,33.39,32.059,35.041
35.313,32.106,33.613,33.292,32.061,35.916
35.272,32.058,33.5,33.195,32.054,36.802
35.23,32.007,33.384,33.099000000000004,32.035,37.68
35.187,31.954,33.265,33.005,32.003,38.53
35.141,31.898000000000003,33.144,32.911,31.959,39.335
35.093,31.836,33.021,32.818000000000005,31.904,40.079
35.042,31.771,32.895,32.726,31.839000000000002,40.75
34.988,31.703000000000003,32.768,32.634,31.768,41.338
34.931999999999995,31.634,32.639,32.544000000000004,31.691999999999997,41.836000000000006
34.872,31.565,32.510999999999996,32.454,31.613000000000003,42.24100000000001
34.809,31.498,32.382,32.366,31.533,42.553999999999995
34.744,31.436999999999998,32.254,32.279,31.455,42.776
34.677,31.384,32.126999999999995,32.194,31.379,42.915
34.607,31.343000000000004,32.001999999999995,32.11,31.307,42.978
34.537,31.319000000000003,31.878,32.029,31.241999999999997,42.974
34.466,31.316999999999997,31.756999999999998,31.949,31.183000000000003,42.913000000000004
34.395,31.343000000000004,31.64,31.868000000000002,31.131,42.803000000000004
34.325,31.404,31.525,31.785,31.086,42.653
34.255,31.509,31.415,31.701,31.048000000000002,42.473
34.185,31.665,31.308000000000003,31.615,31.017,42.272
34.116,31.88,31.206,31.529,30.99,42.059
34.047,32.16,31.105999999999998,31.445,30.965,41.84
33.981,32.510999999999996,31.009,31.364,30.943,41.621
33.916,32.936,30.915,31.287,30.923000000000002,41.405
33.853,33.435,30.823,31.213,30.908,41.198
33.792,34.005,30.734,31.144000000000002,30.898000000000003,41.0
33.731,34.641999999999996,30.646,31.078000000000003,30.897,40.814
33.67,35.335,30.56,31.017,30.91,40.64
33.609,36.075,30.475,30.959,30.941999999999997,40.478
33.547,36.849000000000004,30.391,30.903000000000002,31.000999999999998,40.326
33.486,37.641,30.309,30.85,31.096,40.18
33.426,38.437,30.23,30.799,31.234,40.041
33.366,39.22,30.153000000000002,30.750999999999998,31.425,39.906
33.306,39.977,30.081,30.706,31.676,39.773
33.248000000000005,40.692,30.014,30.660999999999998,31.993000000000002,39.641
33.191,41.355,29.951999999999998,30.616999999999997,32.376999999999995,39.509
33.135,41.955,29.894000000000002,30.572,32.830999999999996,39.375
33.080999999999996,42.486000000000004,29.839000000000002,30.526999999999997,33.35,39.238
33.03,42.942,29.785999999999998,30.482,33.927,39.097
32.982,43.321000000000005,29.733,30.435,34.552,38.952
32.938,43.623000000000005,29.68,30.385,35.213,38.803000000000004
32.896,43.851000000000006,29.625999999999998,30.334,35.895,38.65
32.857,44.007,29.570999999999998,30.28,36.582,38.493
32.819,44.096000000000004,29.514,30.225,37.259,38.332
32.781,44.123999999999995,29.455,30.168000000000003,37.912,38.167
32.745,44.098,29.396,30.11,38.525999999999996,37.998000000000005
32.709,44.027,29.335,30.05,39.091,37.827
32.673,43.917,29.275,29.99,39.596,37.657
32.638000000000005,43.775,29.214000000000002,29.93,40.033,37.49
32.602,43.611000000000004,29.154,29.872,40.399,37.329
32.566,43.431000000000004,29.095,29.815,40.69,37.176
32.529,43.24,29.037,29.759,40.908,37.032
32.492,43.044,28.982,29.705,41.055,36.898
32.455999999999996,42.847,28.928,29.651999999999997,41.135,36.775
32.421,42.651,28.874000000000002,29.601999999999997,41.153999999999996,36.663000000000004
32.388000000000005,42.457,28.822,29.554000000000002,41.119,36.563
32.357,42.268,28.769000000000002,29.508000000000003,41.038999999999994,36.475
32.327,42.082,28.717,29.465999999999998,40.92,36.4
32.298,41.9,28.666,29.43,40.77,36.336
32.271,41.723,28.616,29.401,40.598,36.286
32.245,41.55,28.57,29.383000000000003,40.409,36.248000000000005
32.222,41.379,28.53,29.381,40.211,36.223
32.201,41.211999999999996,28.499000000000002,29.401999999999997,40.009,36.211999999999996
32.184,41.047,28.480999999999998,29.453000000000003,39.808,36.214
32.171,40.883,28.476999999999997,29.541999999999998,39.611999999999995,36.229
32.16,40.721,28.494,29.68,39.424,36.254
32.154,40.558,28.537,29.875,39.245,36.289
32.153,40.395,28.616999999999997,30.135,39.077,36.33
32.161,40.231,28.743000000000002,30.467,38.919000000000004,36.374
32.178000000000004,40.065,28.928,30.871,38.772,36.421
32.207,39.896,29.184,31.346999999999998,38.635,36.467
32.251999999999995,39.725,29.519000000000002,31.892,38.507,36.510999999999996
32.315,39.553000000000004,29.943,32.497,38.385,36.553000000000004
32.396,39.378,30.46,33.152,38.266999999999996,36.592
32.498000000000005,39.202,31.070999999999998,33.842,38.15,36.626
32.622,39.025999999999996,31.773000000000003,34.553000000000004,38.034,36.655
32.77,38.849000000000004,32.559,35.271,37.916,36.679
32.946999999999996,38.675,33.421,35.978,37.796,36.696
33.157,38.504,34.343,36.661,37.675,36.704
33.406,38.338,35.309,37.306,37.55,36.703
33.703,38.178000000000004,36.3,37.900999999999996,37.423,36.691
34.053000000000004,38.028,37.294000000000004,38.435,37.292,36.667
34.46,37.888000000000005,38.273,38.904,37.159,36.629
34.923,37.762,39.214,39.302,37.024,36.579
35.438,37.65,40.099000000000004,39.631,36.89,36.516999999999996
35.998000000000005,37.551,40.91,39.891,36.757,36.444
36.592,37.465,41.63399999999999,40.085,36.626,36.361999999999995
37.209,37.391,42.261,40.217,36.499,36.271
37.834,37.327,42.786,40.294000000000004,36.376,36.173
38.455,37.273,43.205,40.323,36.258,36.07
39.054,37.226,43.519,40.31,36.147,35.961999999999996
39.618,37.186,43.731,40.263000000000005,36.042,35.849000000000004
40.134,37.152,43.848,40.186,35.945,35.733000000000004
40.591,37.124,43.879,40.088,35.857,35.613
40.983000000000004,37.101,43.836999999999996,39.972,35.779,35.489000000000004
41.305,37.082,43.731,39.845,35.711,35.361999999999995
41.555,37.065,43.577,39.711,35.654,35.231
41.733000000000004,37.05,43.38399999999999,39.574,35.609,35.099000000000004
41.843,37.036,43.165,39.436,35.573,34.969
41.888999999999996,37.022,42.928999999999995,39.301,35.548,34.84
41.876999999999995,37.007,42.68600000000001,39.172,35.533,34.711999999999996
41.816,36.991,42.442,39.047,35.525999999999996,34.584
41.713,36.974000000000004,42.203,38.929,35.527,34.454
41.576,36.955,41.972,38.816,35.536,34.321999999999996
41.412,36.934,41.751999999999995,38.709,35.552,34.189
41.227,36.909,41.544,38.607,35.571999999999996,34.053000000000004
41.028,36.878,41.347,38.51,35.597,33.915
40.82,36.84,41.162,38.417,35.624,33.775999999999996
40.609,36.795,40.986000000000004,38.325,35.650999999999996,33.635999999999996
40.4,36.744,40.82,38.232,35.675,33.496
40.196,36.688,40.662,38.135999999999996,35.696999999999996,33.358000000000004
40.001,36.626,40.512,38.037,35.714,33.222
39.816,36.56,40.367,37.933,35.726,33.089
39.641,36.49,40.225,37.825,35.734,32.96
39.475,36.415,40.084,37.713,35.738,32.833
39.318000000000005,36.336,39.942,37.596,35.736,32.709
39.169000000000004,36.254,39.799,37.478,35.729,32.586
39.027,36.166,39.652,37.358000000000004,35.715,32.464
38.891,36.075,39.501,37.236999999999995,35.694,32.345
38.759,35.981,39.344,37.116,35.666,32.227
38.628,35.883,39.181999999999995,36.994,35.631,32.111999999999995
38.499,35.783,39.015,36.874,35.589,31.999000000000002
38.37,35.679,38.845,36.755,35.54,31.891
38.241,35.574,38.673,36.64,35.485,31.787
38.11,35.468,38.501,36.53,35.424,31.688000000000002
37.979,35.361999999999995,38.329,36.426,35.356,31.594
37.845,35.256,38.159,36.33,35.283,31.504
37.71,35.152,37.992,36.244,35.203,31.416999999999998
37.574,35.049,37.829,36.169000000000004,35.119,31.331999999999997
37.435,34.95,37.669000000000004,36.105,35.03,31.248
37.295,34.853,37.513000000000005,36.052,34.937,31.165
37.155,34.757,37.363,36.013000000000005,34.843,31.081999999999997
37.013000000000005,34.663000000000004,37.217,35.985,34.747,30.998
36.873000000000005,34.569,37.079,35.969,34.650999999999996,30.915
36.735,34.475,36.949,35.964,34.556999999999995,30.831999999999997
36.602,34.384,36.826,35.967,34.463,30.748
36.477,34.293,36.713,35.978,34.37,30.662
36.359,34.204,36.61,35.996,34.277,30.575
36.249,34.115,36.516,36.018,34.186,30.485
36.148,34.027,36.429,36.043,34.096,30.394000000000002
36.055,33.941,36.349000000000004,36.071,34.007,30.302
35.97,33.856,36.274,36.098,33.921,30.21
35.894,33.772,36.203,36.124,33.836,30.119
35.824,33.689,36.134,36.146,33.753,30.029
35.762,33.606,36.07,36.166,33.671,29.938000000000002
35.707,33.524,36.009,36.181999999999995,33.59,29.846999999999998
35.657,33.443000000000005,35.952,36.196,33.51,29.756
35.614000000000004,33.361999999999995,35.899,36.205,33.431,29.665
35.576,33.28,35.85,36.21,33.354,29.575
35.543,33.2,35.805,36.21,33.277,29.485
35.515,33.12,35.762,36.203,33.202,29.398000000000003
35.491,33.041,35.72,36.189,33.128,29.313000000000002
35.47,32.963,35.679,36.165,33.055,29.233
35.45,32.885,35.635999999999996,36.133,32.982,29.156
35.434,32.808,35.592,36.091,32.91,29.085
35.419000000000004,32.733000000000004,35.546,36.041,32.836999999999996,29.018
35.405,32.658,35.496,35.982,32.764,28.959
35.39,32.584,35.443000000000005,35.914,32.69,28.906999999999996
35.373000000000005,32.510999999999996,35.385999999999996,35.836999999999996,32.617,28.865
35.356,32.44,35.325,35.753,32.543,28.834
35.338,32.371,35.26,35.661,32.471,28.82
35.319,32.303000000000004,35.19,35.562,32.4,28.828000000000003
35.299,32.236999999999995,35.115,35.455999999999996,32.327,28.868000000000002
35.278,32.174,35.031,35.344,32.249,28.948
35.257,32.113,34.941,35.228,32.166,29.083000000000002
35.236,32.053000000000004,34.843,35.109,32.079,29.281999999999996
35.215,31.995,34.74,34.989000000000004,31.993000000000002,29.557
35.194,31.936999999999998,34.632,34.87,31.910999999999998,29.915
35.173,31.88,34.519,34.751999999999995,31.833000000000002,30.363000000000003
35.153,31.823,34.404,34.635,31.763,30.904
35.132,31.767,34.286,34.52,31.703000000000003,31.538
35.109,31.71,34.168,34.408,31.651,32.26
35.086,31.655,34.049,34.297,31.608,33.058
35.061,31.6,33.929,34.187,31.573,33.918
35.034,31.549,33.81,34.077,31.546,34.821999999999996
35.005,31.502,33.692,33.966,31.524,35.748000000000005
34.972,31.462,33.576,33.856,31.506,36.678000000000004
34.936,31.434,33.461,33.746,31.49,37.589
34.897,31.421,33.348,33.635999999999996,31.474,38.461
34.856,31.43,33.236999999999995,33.525,31.456,39.278
34.811,31.468000000000004,33.126999999999995,33.413000000000004,31.435,40.022
34.763000000000005,31.544,33.019,33.302,31.410999999999998,40.681999999999995
34.711,31.666,32.913000000000004,33.192,31.383000000000003,41.248999999999995
34.656,31.84,32.806,33.082,31.351999999999997,41.718999999999994
34.599000000000004,32.074,32.699,32.971,31.319000000000003,42.091
34.54,32.374,32.591,32.861,31.283,42.36600000000001
34.48,32.745,32.483000000000004,32.751,31.245,42.548
34.42,33.187,32.375,32.641,31.205,42.645
34.36,33.699,32.266999999999996,32.531,31.165,42.666000000000004
34.301,34.275999999999996,32.161,32.42,31.123,42.619
34.243,34.912,32.056,32.311,31.08,42.515
34.185,35.596,31.955,32.204,31.035999999999998,42.36600000000001
34.129,36.318000000000005,31.855,32.097,30.991,42.18
34.074,37.063,31.758000000000003,31.99,30.945999999999998,41.965
34.021,37.817,31.662,31.885,30.903000000000002,41.731
33.97,38.567,31.566999999999997,31.781,30.863000000000003,41.485
33.92,39.297,31.473000000000003,31.678,30.828000000000003,41.235
33.873000000000005,39.996,31.38,31.578000000000003,30.8,40.986000000000004
33.825,40.650999999999996,31.288,31.48,30.781999999999996,40.745
33.777,41.251999999999995,31.198,31.384,30.78,40.513000000000005
33.726,41.79,31.108,31.291,30.799,40.292
33.672,42.26,31.018,31.201,30.846,40.083
33.617,42.657,30.928,31.113000000000003,30.93,39.885999999999996
33.56,42.981,30.837,31.028000000000002,31.058000000000003,39.702
33.503,43.231,30.745,30.945,31.241999999999997,39.529
33.445,43.413000000000004,30.651999999999997,30.864,31.488000000000003,39.365
33.387,43.531000000000006,30.557,30.785999999999998,31.803,39.207
33.330999999999996,43.592,30.462,30.709,32.192,39.053000000000004
33.278,43.6,30.368000000000002,30.634,32.655,38.902
33.226,43.56100000000001,30.276999999999997,30.561,33.188,38.751
33.176,43.48,30.188000000000002,30.489,33.785,38.601
33.128,43.363,30.103,30.416999999999998,34.434,38.45
33.082,43.217,30.021,30.344,35.123000000000005,38.297
33.036,43.048,29.941999999999997,30.271,35.836999999999996,38.143
32.991,42.86,29.866999999999997,30.195,36.559,37.985
32.946999999999996,42.659,29.791999999999998,30.119,37.272,37.824
32.903,42.45,29.719,30.041,37.961999999999996,37.66
32.859,42.235,29.646,29.964000000000002,38.613,37.493
32.813,42.019,29.573,29.888,39.213,37.325
32.768,41.803000000000004,29.5,29.813000000000002,39.751,37.157
32.722,41.591,29.425,29.738000000000003,40.218,36.991
32.677,41.38399999999999,29.349,29.662,40.61,36.829
32.633,41.181999999999995,29.272,29.588,40.923,36.673
32.59,40.986999999999995,29.195999999999998,29.514,41.16,36.525
32.551,40.798,29.12,29.441,41.321000000000005,36.385
32.514,40.615,29.046,29.369,41.413000000000004,36.255
32.48,40.438,28.976,29.299,41.442,36.137
32.448,40.266,28.910999999999998,29.232,41.417,36.031
32.418,40.097,28.851,29.166999999999998,41.345,35.938
32.389,39.929,28.799,29.104,41.235,35.856
32.36,39.763000000000005,28.753,29.043000000000003,41.096000000000004,35.787
32.332,39.595,28.713,28.982,40.935,35.73
32.305,39.427,28.679000000000002,28.923000000000002,40.76,35.686
32.277,39.259,28.648000000000003,28.865,40.576,35.656
32.248000000000005,39.092,28.62,28.808000000000003,40.388000000000005,35.638000000000005
32.218,38.926,28.594,28.753,40.201,35.635
32.187,38.760999999999996,28.569000000000003,28.7,40.018,35.644
32.155,38.597,28.544,28.65,39.842,35.666
32.124,38.435,28.52,28.601999999999997,39.675,35.698
32.094,38.275,28.498,28.557,39.518,35.74
32.064,38.118,28.478,28.515,39.371,35.79
32.037,37.965,28.463,28.476999999999997,39.233000000000004,35.845
32.012,37.816,28.455,28.445,39.106,35.904
31.99,37.671,28.456,28.419,38.988,35.963
31.973000000000003,37.534,28.471,28.403000000000002,38.876,36.021
31.961,37.404,28.506,28.401999999999997,38.77,36.076
31.956,37.283,28.568,28.423000000000002,38.667,36.126
31.959,37.172,28.666,28.473000000000003,38.566,36.169000000000004
31.971999999999998,37.069,28.813000000000002,28.561,38.466,36.204
31.998,36.975,29.02,28.698,38.363,36.229
32.038000000000004,36.889,29.298000000000002,28.89,38.257,36.243
32.093,36.812,29.656,29.146,38.147,36.246
32.165,36.744,30.101999999999997,29.47,38.033,36.239000000000004
32.257,36.683,30.64,29.866,37.914,36.22
32.37,36.632,31.271,30.334,37.791,36.19
32.506,36.589,31.994,30.87,37.662,36.148
32.665,36.554,32.801,31.468000000000004,37.531,36.095
32.849000000000004,36.527,33.68,32.12,37.397,36.029
33.059,36.506,34.618,32.813,37.262,35.952
33.298,36.491,35.595,33.533,37.126999999999995,35.863
33.569,36.481,36.594,34.265,36.994,35.763000000000005
33.88,36.475,37.592,34.995,36.865,35.653
34.234,36.471,38.569,35.707,36.742,35.535
34.634,36.469,39.503,36.389,36.626,35.41
35.078,36.467,40.374,37.027,36.519,35.281
35.561,36.464,41.168,37.611,36.421,35.15
36.073,36.46,41.871,38.132,36.334,35.018
36.603,36.453,42.473,38.586,36.256,34.888000000000005
37.137,36.444,42.968999999999994,38.969,36.188,34.76
37.662,36.431999999999995,43.356,39.281,36.131,34.635
38.168,36.417,43.638000000000005,39.522,36.085,34.513000000000005
38.643,36.398,43.818000000000005,39.695,36.05,34.393
39.078,36.374,43.905,39.804,36.025,34.275999999999996
39.466,36.345,43.908,39.855,36.013000000000005,34.158
39.801,36.31,43.836999999999996,39.855,36.010999999999996,34.041
40.079,36.268,43.705,39.806,36.019,33.922
40.298,36.219,43.525,39.707,36.036,33.804
40.459,36.163000000000004,43.309,39.567,36.062,33.686
40.562,36.1,43.07,39.397,36.095,33.568000000000005
40.611999999999995,36.031,42.816,39.205999999999996,36.132,33.45
40.61,35.957,42.555,39.007,36.173,33.333
40.563,35.879,42.29600000000001,38.808,36.214,33.216
40.475,35.798,42.042,38.618,36.254,33.098
40.355,35.714,41.798,38.442,36.292,32.98
40.21,35.626,41.567,38.283,36.326,32.861999999999995
40.048,35.535,41.35,38.143,36.354,32.745
39.875,35.441,41.148999999999994,38.023,36.374,32.63
39.695,35.344,40.961999999999996,37.92,36.385999999999996,32.516999999999996
39.513000000000005,35.245,40.788000000000004,37.83,36.389,32.405
39.332,35.144,40.626,37.749,36.383,32.293
39.154,35.041,40.472,37.674,36.368,32.179
38.981,34.937,40.324,37.6,36.344,32.064
38.817,34.833,40.181,37.527,36.311,31.949
38.66,34.729,40.041,37.449,36.268,31.834
38.513000000000005,34.625,39.9,37.366,36.215,31.72
38.374,34.521,39.757,37.275999999999996,36.150999999999996,31.609
38.244,34.42,39.61,37.179,36.079,31.499000000000002
38.122,34.321,39.455999999999996,37.074,35.998000000000005,31.393
38.005,34.226,39.294000000000004,36.961,35.911,31.29
37.893,34.135,39.124,36.842,35.82,31.19
37.783,34.047,38.945,36.717,35.725,31.095
37.672,33.963,38.759,36.586999999999996,35.628,31.004
37.561,33.882,38.566,36.452,35.529,30.916999999999998
37.449,33.802,38.368,36.316,35.429,30.835
37.335,33.724000000000004,38.168,36.179,35.328,30.756999999999998
37.219,33.645,37.968,36.044000000000004,35.227,30.684
37.102,33.567,37.77,35.912,35.126,30.614
36.982,33.486999999999995,37.574,35.783,35.023,30.546999999999997
36.86,33.406,37.383,35.662,34.921,30.480999999999998
36.736,33.324,37.199,35.547,34.82,30.415
36.61,33.241,37.022,35.441,34.719,30.346999999999998
36.484,33.157,36.854,35.343,34.618,30.278000000000002
36.358000000000004,33.071999999999996,36.694,35.254,34.518,30.206999999999997
36.235,32.986999999999995,36.543,35.175,34.417,30.134
36.113,32.902,36.400999999999996,35.107,34.316,30.059
35.995,32.818000000000005,36.269,35.049,34.215,29.983
35.881,32.734,36.145,35.001,34.114000000000004,29.906
35.772,32.65,36.031,34.963,34.013000000000005,29.826999999999998
35.669000000000004,32.567,35.924,34.935,33.914,29.746
35.571,32.484,35.824,34.915,33.815,29.665
35.481,32.400999999999996,35.73,34.900999999999996,33.719,29.581
35.398,32.318000000000005,35.641999999999996,34.894,33.623000000000005,29.495
35.325,32.236999999999995,35.559,34.891,33.53,29.41
35.260999999999996,32.158,35.482,34.891,33.438,29.326
35.205,32.082,35.412,34.895,33.346,29.246
35.158,32.008,35.347,34.9,33.256,29.171
35.118,31.936,35.289,34.906,33.167,29.101999999999997
35.085,31.868000000000002,35.236,34.911,33.078,29.04
35.059,31.801,35.187,34.914,32.99,28.982
35.04,31.735,35.141999999999996,34.914,32.904,28.93
35.025,31.67,35.098,34.911,32.82,28.885
35.014,31.607,35.055,34.904,32.734,28.846999999999998
35.006,31.546,35.01,34.891999999999996,32.648,28.822
34.999,31.487,34.964,34.875,32.562,28.814
34.988,31.430999999999997,34.913000000000004,34.852,32.475,28.829
34.967,31.375999999999998,34.852,34.824,32.39,28.875
34.937,31.323,34.779,34.79,32.308,28.962
34.899,31.272,34.696,34.749,32.229,29.101
34.856,31.221999999999998,34.605,34.701,32.154,29.303
34.812,31.174,34.508,34.647,32.084,29.58
34.769,31.128,34.406,34.585,32.016999999999996,29.941
34.73,31.085,34.302,34.516999999999996,31.953000000000003,30.394000000000002
34.698,31.046,34.199,34.444,31.893,30.944000000000003
34.673,31.013,34.096,34.365,31.833000000000002,31.59
34.655,30.986,33.997,34.28,31.775,32.325
34.646,30.965,33.900999999999996,34.189,31.715999999999998,33.141999999999996
34.643,30.951999999999998,33.809,34.094,31.656999999999996,34.024
34.647,30.95,33.723,33.996,31.598000000000003,34.955
34.655,30.962,33.641,33.894,31.539,35.912
34.666,30.993000000000002,33.561,33.79,31.478,36.876
34.678000000000004,31.048000000000002,33.483000000000004,33.683,31.416,37.825
34.69,31.134,33.404,33.574,31.357,38.736
34.7,31.259,33.321999999999996,33.463,31.298000000000002,39.591
34.707,31.428,33.236999999999995,33.351,31.241,40.373000000000005
34.711,31.649,33.147,33.236999999999995,31.185,41.068000000000005
34.709,31.927,33.052,33.123000000000005,31.131,41.669
34.7,32.266,32.953,33.009,31.078000000000003,42.168
34.683,32.667,32.85,32.896,31.026,42.56399999999999
34.657,33.13,32.743,32.784,30.975,42.857
34.622,33.652,32.633,32.674,30.925,43.052
34.582,34.227,32.519,32.565,30.875999999999998,43.156000000000006
34.535,34.845,32.404,32.455999999999996,30.829,43.178999999999995
34.485,35.498000000000005,32.287,32.347,30.784000000000002,43.131
34.431999999999995,36.173,32.168,32.238,30.74,43.023
34.378,36.859,32.05,32.129,30.698,42.867
34.325,37.543,31.932,32.022,30.659000000000002,42.672
34.273,38.211,31.816,31.915,30.622,42.448
34.222,38.853,31.703000000000003,31.809,30.585,42.20399999999999
34.172,39.457,31.594,31.704,30.55,41.946999999999996
34.122,40.013000000000005,31.491,31.601999999999997,30.516,41.685
34.073,40.512,31.391,31.500999999999998,30.484,41.424
34.025,40.946999999999996,31.295,31.4,30.455,41.17
33.978,41.31399999999999,31.201999999999998,31.301,30.432,40.926
33.931,41.61,31.112,31.203000000000003,30.419,40.694
33.882,41.836000000000006,31.025,31.107,30.421,40.475
33.833,41.994,30.94,31.011999999999997,30.447,40.27
33.782,42.086000000000006,30.857,30.92,30.505,40.077
33.729,42.119,30.776,30.829,30.608,39.894
33.674,42.099,30.695,30.74,30.764,39.72
33.619,42.033,30.615,30.651999999999997,30.987,39.553000000000004
33.563,41.928000000000004,30.535,30.566,31.285,39.391
33.507,41.793,30.453000000000003,30.480999999999998,31.665,39.233000000000004
33.449,41.633,30.369,30.397,32.129,39.077
33.393,41.456,30.284000000000002,30.315,32.676,38.92
33.339,41.266000000000005,30.197,30.234,33.3,38.762
33.286,41.068999999999996,30.11,30.155,33.993,38.6
33.236,40.87,30.023000000000003,30.078000000000003,34.74,38.434
33.187,40.671,29.936999999999998,30.002,35.523,38.263000000000005
33.141,40.475,29.851999999999997,29.926,36.323,38.089
33.098,40.285,29.768,29.851,37.12,37.911
33.058,40.101,29.686,29.776,37.895,37.731
33.021,39.923,29.605,29.701,38.631,37.55
32.985,39.753,29.526,29.625,39.314,37.368
32.951,39.589,29.448,29.548000000000002,39.933,37.189
32.917,39.43,29.373,29.471999999999998,40.48,37.013000000000005
32.884,39.275999999999996,29.301,29.397,40.949,36.841
32.85,39.126,29.232,29.323,41.335,36.675
32.816,38.979,29.165,29.250999999999998,41.638999999999996,36.516999999999996
32.78,38.833,29.101,29.18,41.864,36.369
32.742,38.69,29.04,29.111,42.013999999999996,36.231
32.701,38.547,28.982,29.044,42.095,36.104
32.657,38.405,28.926,28.98,42.113,35.991
32.611999999999995,38.263000000000005,28.872,28.92,42.077,35.891
32.565,38.12,28.82,28.862,41.995,35.805
32.516,37.977,28.77,28.807,41.873999999999995,35.733000000000004
32.467,37.833,28.721999999999998,28.753,41.724,35.674
32.419000000000004,37.69,28.674,28.701,41.551,35.629
32.372,37.547,28.625999999999998,28.651,41.363,35.597
32.329,37.406,28.576999999999998,28.604,41.165,35.579
32.289,37.266,28.526,28.557,40.963,35.575
32.251999999999995,37.13,28.474,28.511,40.760999999999996,35.584
32.218,36.998000000000005,28.421999999999997,28.464000000000002,40.563,35.605
32.187,36.871,28.371,28.418000000000003,40.371,35.637
32.16,36.749,28.320999999999998,28.372,40.185,35.678000000000004
32.137,36.633,28.274,28.326999999999998,40.008,35.726
32.117,36.523,28.230999999999998,28.283,39.84,35.781
32.1,36.421,28.194000000000003,28.241999999999997,39.681999999999995,35.838
32.088,36.328,28.162,28.206999999999997,39.533,35.896
32.082,36.242,28.136,28.18,39.391,35.952
32.083,36.165,28.118000000000002,28.165,39.256,36.003
32.095,36.097,28.107,28.166999999999998,39.126,36.047
32.119,36.036,28.108,28.193,39.0,36.083
32.157,35.982,28.124000000000002,28.252,38.876999999999995,36.11
32.21,35.934,28.160999999999998,28.351,38.754,36.126999999999995
32.279,35.89,28.224,28.499000000000002,38.632,36.134
32.365,35.851,28.320999999999998,28.705,38.507,36.131
32.469,35.814,28.462,28.976999999999997,38.38,36.118
32.591,35.782,28.659000000000002,29.32,38.248000000000005,36.094
32.732,35.751999999999995,28.921999999999997,29.737,38.113,36.06
32.893,35.727,29.261,30.228,37.973,36.015
33.075,35.705,29.686,30.791,37.829,35.961
33.278,35.687,30.203000000000003,31.42,37.683,35.898
33.505,35.675,30.813000000000002,32.104,37.536,35.825
33.76,35.667,31.516,32.833,37.39,35.744
34.045,35.662,32.305,33.591,37.244,35.652
34.366,35.659,33.169000000000004,34.365,37.1,35.551
34.727,35.656,34.095,35.14,36.958,35.44
35.125,35.652,35.066,35.899,36.821,35.323
35.559,35.646,36.062,36.626999999999995,36.689,35.2
36.02,35.637,37.062,37.312,36.564,35.074
36.5,35.622,38.047,37.941,36.446,34.946999999999996
36.986999999999995,35.601,38.997,38.507,36.336999999999996,34.819
37.469,35.573,39.894,39.003,36.233000000000004,34.69
37.934,35.537,40.722,39.427,36.131,34.561
38.37,35.492,41.467,39.777,36.031,34.43
38.768,35.438,42.121,40.053000000000004,35.935,34.3
39.121,35.376,42.676,40.259,35.846,34.171
39.423,35.308,43.129,40.398,35.766999999999996,34.043
39.67,35.235,43.481,40.478,35.701,33.918
39.861,35.156,43.736000000000004,40.506,35.65,33.795
39.997,35.074,43.897,40.489000000000004,35.615,33.675
40.08,34.989000000000004,43.973,40.435,35.596,33.555
40.113,34.902,43.971000000000004,40.35,35.59,33.436
40.1,34.813,43.902,40.241,35.597,33.316
40.045,34.723,43.776,40.115,35.614000000000004,33.198
39.955,34.633,43.605,39.976,35.639,33.08
39.834,34.543,43.398,39.83,35.669000000000004,32.965
39.691,34.455,43.166000000000004,39.68,35.702,32.852
39.531,34.37,42.918,39.53,35.738,32.741
39.36,34.29,42.663000000000004,39.383,35.773,32.632
39.185,34.213,42.406000000000006,39.24,35.804,32.523
39.009,34.139,42.153999999999996,39.103,35.829,32.414
38.835,34.068000000000005,41.91,38.972,35.848,32.305
38.665,34.0,41.677,38.845,35.859,32.195
38.501999999999995,33.935,41.457,38.724000000000004,35.86,32.085
38.346,33.87,41.248999999999995,38.608000000000004,35.852,31.974
38.196999999999996,33.806,41.053000000000004,38.494,35.834,31.864
38.056999999999995,33.742,40.867,38.383,35.806,31.756
37.926,33.678000000000004,40.689,38.273,35.77,31.649
37.803000000000004,33.614000000000004,40.515,38.161,35.723,31.546
37.688,33.55,40.345,38.045,35.667,31.445999999999998
37.58,33.485,40.175,37.923,35.602,31.35
37.479,33.418,40.003,37.795,35.529,31.258000000000003
37.378,33.35,39.827,37.661,35.446999999999996,31.171
37.265,33.281,39.647,37.522,35.358000000000004,31.09
37.138000000000005,33.21,39.461999999999996,37.38,35.263000000000005,31.013
36.998000000000005,33.135999999999996,39.273,37.236,35.164,30.941
36.849000000000004,33.061,39.078,37.092,35.061,30.871
36.696,32.985,38.879,36.95,34.955999999999996,30.8
36.545,32.909,38.674,36.811,34.848,30.726999999999997
36.402,32.834,38.467,36.675,34.74,30.653000000000002
36.269,32.762,38.257,36.543,34.63,30.576999999999998
36.148,32.693000000000005,38.047,36.418,34.52,30.499000000000002
36.038000000000004,32.628,37.836,36.3,34.41,30.421
35.941,32.566,37.626999999999995,36.189,34.3,30.342
35.855,32.507,37.42,36.086999999999996,34.191,30.265
35.78,32.449,37.218,35.994,34.080999999999996,30.19
35.714,32.393,37.022,35.912,33.973,30.116
35.655,32.339,36.833,35.839,33.866,30.044
35.601,32.286,36.652,35.775999999999996,33.760999999999996,29.973000000000003
35.549,32.234,36.48,35.722,33.657,29.903000000000002
35.498000000000005,32.181999999999995,36.317,35.676,33.554,29.834
35.446,32.132,36.163000000000004,35.639,33.453,29.766
35.394,32.082,36.019,35.609,33.354,29.701
35.342,32.031,35.885,35.586,33.257,29.638
35.29,31.98,35.760999999999996,35.569,33.162,29.576999999999998
35.239000000000004,31.927,35.645,35.558,33.068000000000005,29.517
35.191,31.873,35.539,35.551,32.977,29.458000000000002
35.148,31.82,35.442,35.547,32.887,29.4
35.11,31.77,35.353,35.546,32.798,29.342
35.077,31.721999999999998,35.271,35.547,32.711,29.285
35.048,31.677,35.195,35.55,32.623000000000005,29.229
35.025,31.634,35.125,35.554,32.535,29.173000000000002
35.008,31.593000000000004,35.06,35.558,32.446999999999996,29.121
34.997,31.555,34.998000000000005,35.561,32.359,29.072
34.992,31.518,34.938,35.561,32.272,29.028000000000002
34.991,31.480999999999998,34.878,35.556,32.186,28.991
34.994,31.444000000000003,34.817,35.547,32.101,28.962
34.999,31.406999999999996,34.753,35.53,32.016,28.945999999999998
35.003,31.368000000000002,34.685,35.507,31.930999999999997,28.945
35.006,31.326999999999998,34.613,35.474000000000004,31.846,28.965999999999998
35.007,31.283,34.537,35.433,31.761999999999997,29.016
35.006,31.238000000000003,34.455999999999996,35.383,31.678,29.105
35.001999999999995,31.191999999999997,34.372,35.324,31.595,29.243000000000002
34.994,31.148000000000003,34.284,35.258,31.513,29.441999999999997
34.982,31.107,34.191,35.186,31.432,29.712
34.967,31.069000000000003,34.093,35.109,31.354,30.061999999999998
34.948,31.035999999999998,33.992,35.025999999999996,31.279,30.498
34.926,31.01,33.888000000000005,34.939,31.206999999999997,31.024
34.9,30.991999999999997,33.783,34.85,31.139,31.639
34.871,30.985,33.677,34.756,31.074,32.336999999999996
34.84,30.993000000000002,33.571999999999996,34.659,31.013,33.109
34.81,31.02,33.467,34.559,30.954,33.941
34.78,31.072,33.363,34.455,30.897,34.815
34.751,31.156999999999996,33.26,34.35,30.842,35.714
34.724000000000004,31.283,33.158,34.242,30.788,36.617
34.696999999999996,31.456,33.056999999999995,34.134,30.734,37.504
34.672,31.683000000000003,32.955,34.025999999999996,30.68,38.356
34.648,31.968000000000004,32.852,33.918,30.625999999999998,39.155
34.624,32.316,32.75,33.811,30.570999999999998,39.885
34.599000000000004,32.728,32.648,33.704,30.515,40.535
34.573,33.203,32.546,33.595,30.456,41.095
34.545,33.736,32.445,33.486,30.396,41.56100000000001
34.513000000000005,34.321,32.345,33.376,30.333000000000002,41.93
34.477,34.95,32.245,33.266,30.269000000000002,42.203
34.439,35.611999999999995,32.146,33.154,30.203000000000003,42.38399999999999
34.399,36.292,32.048,33.04,30.136999999999997,42.479
34.357,36.979,31.951,32.925,30.07,42.494
34.313,37.657,31.854,32.808,30.004,42.44
34.269,38.313,31.759,32.689,29.94,42.326
34.226,38.935,31.665,32.571,29.88,42.163000000000004
34.185,39.513000000000005,31.573,32.452,29.823,41.961999999999996
34.146,40.037,31.482,32.334,29.77,41.733000000000004
34.108000000000004,40.501,31.392,32.218,29.721,41.486000000000004
34.071,40.9,31.304000000000002,32.103,29.676,41.23
34.034,41.231,31.215999999999998,31.99,29.634,40.97
33.997,41.493,31.13,31.88,29.594,40.714
33.96,41.687,31.044,31.772,29.555999999999997,40.464
33.921,41.815,30.959,31.665,29.522,40.226
33.88,41.882,30.874000000000002,31.561999999999998,29.491,40.0
33.836,41.893,30.79,31.461,29.465,39.787
33.791,41.854,30.706,31.364,29.445999999999998,39.586999999999996
33.742,41.771,30.622,31.27,29.436,39.397
33.691,41.651,30.539,31.178,29.439,39.217
33.637,41.501999999999995,30.454,31.09,29.462,39.045
33.583,41.331,30.37,31.003,29.514,38.878
33.527,41.145,30.285999999999998,30.918000000000003,29.607,38.715
33.471,40.949,30.201999999999998,30.834,29.750999999999998,38.553000000000004
33.415,40.748000000000005,30.119,30.75,29.956999999999997,38.393
33.36,40.546,30.035999999999998,30.666999999999998,30.235,38.232
33.306999999999995,40.348,29.953000000000003,30.584,30.593000000000004,38.07
33.254,40.155,29.871,30.500999999999998,31.035999999999998,37.907
33.202,39.968,29.79,30.419,31.565,37.742
33.15,39.788000000000004,29.71,30.337,32.178000000000004,37.575
33.098,39.614000000000004,29.629,30.255,32.867,37.407
33.049,39.446,29.55,30.174,33.623000000000005,37.236999999999995
33.001,39.282,29.471999999999998,30.093000000000004,34.428000000000004,37.066
32.955999999999996,39.121,29.394000000000002,30.013,35.265,36.895
32.915,38.961999999999996,29.316999999999997,29.934,36.115,36.725
32.876999999999995,38.803000000000004,29.241999999999997,29.855999999999998,36.958,36.556999999999995
32.843,38.641999999999996,29.169,29.779,37.774,36.395
32.814,38.48,29.1,29.703000000000003,38.545,36.239000000000004
32.788000000000004,38.316,29.033,29.628,39.255,36.093
32.765,38.150999999999996,28.968000000000004,29.555,39.89,35.955999999999996
32.744,37.985,28.904,29.483,40.443000000000005,35.830999999999996
32.726,37.819,28.84,29.413,40.906,35.717
32.708,37.653,28.776999999999997,29.344,41.278,35.616
32.691,37.489000000000004,28.715,29.275,41.56100000000001,35.527
32.675,37.328,28.654,29.208000000000002,41.758,35.45
32.658,37.168,28.594,29.141,41.873999999999995,35.384
32.641,37.012,28.535999999999998,29.074,41.916000000000004,35.328
32.624,36.86,28.480999999999998,29.006999999999998,41.891000000000005,35.283
32.606,36.711999999999996,28.429000000000002,28.941,41.808,35.248000000000005
32.589,36.57,28.379,28.879,41.677,35.225
32.573,36.435,28.333000000000002,28.82,41.507,35.211999999999996
32.558,36.306,28.289,28.765,41.309,35.209
32.545,36.184,28.249000000000002,28.715999999999998,41.091,35.217
32.535,36.07,28.212,28.673000000000002,40.861999999999995,35.236
32.531,35.965,28.180999999999997,28.638,40.63,35.264
32.537,35.871,28.153000000000002,28.613000000000003,40.398,35.299
32.555,35.787,28.129,28.601999999999997,40.172,35.34
32.589,35.713,28.108,28.609,39.955,35.383
32.64,35.652,28.089000000000002,28.642,39.75,35.426
32.714,35.601,28.073,28.71,39.556999999999995,35.468
32.812,35.562,28.06,28.820999999999998,39.376999999999995,35.506
32.937,35.532,28.05,28.987,39.209,35.54
33.09,35.51,28.046,29.215,39.053000000000004,35.568000000000005
33.274,35.495,28.051,29.514,38.906,35.589
33.494,35.485,28.066999999999997,29.888,38.766999999999996,35.603
33.758,35.48,28.101999999999997,30.342,38.635,35.609
34.071,35.476,28.164,30.881999999999998,38.508,35.606
34.439,35.474000000000004,28.263,31.514,38.384,35.595
34.865,35.473,28.413,32.232,38.262,35.576
35.347,35.47,28.624000000000002,33.023,38.139,35.549
35.879,35.465,28.906,33.87,38.015,35.515
36.453,35.455999999999996,29.267,34.751999999999995,37.888000000000005,35.472
37.058,35.441,29.713,35.648,37.758,35.42
37.688,35.422,30.246,36.537,37.623000000000005,35.358000000000004
38.33,35.397,30.866,37.396,37.485,35.288000000000004
38.968,35.367,31.568,38.205999999999996,37.344,35.211
39.585,35.330999999999996,32.343,38.952,37.199,35.129
40.166,35.289,33.181,39.619,37.052,35.043
40.699,35.242,34.066,40.2,36.902,34.955
41.173,35.19,34.983000000000004,40.689,36.751999999999995,34.863
41.57899999999999,35.134,35.914,41.088,36.604,34.768
41.912,35.074,36.84,41.396,36.459,34.671
42.17,35.013000000000005,37.744,41.619,36.32,34.57
42.353,34.95,38.609,41.763000000000005,36.19,34.467
42.464,34.888000000000005,39.419000000000004,41.836999999999996,36.07,34.361
42.50899999999999,34.828,40.163000000000004,41.849,35.961,34.254
42.492,34.77,40.833,41.809,35.864000000000004,34.144
42.422,34.714,41.42,41.727,35.778,34.031
42.306999999999995,34.661,41.92,41.614,35.705,33.917
42.156000000000006,34.61,42.333,41.479,35.641999999999996,33.802
41.977,34.562,42.657,41.333,35.591,33.685
41.777,34.514,42.897,41.178999999999995,35.551,33.569
41.56399999999999,34.466,43.058,41.025,35.52,33.454
41.343,34.418,43.145,40.873000000000005,35.499,33.342
41.121,34.369,43.166000000000004,40.728,35.486,33.233000000000004
40.904,34.318000000000005,43.126999999999995,40.59,35.478,33.13
40.693000000000005,34.264,43.037,40.461999999999996,35.476,33.031
40.492,34.208,42.905,40.343,35.477,32.937
40.3,34.148,42.736999999999995,40.232,35.479,32.846
40.119,34.084,42.541000000000004,40.128,35.483000000000004,32.759
39.946,34.015,42.326,40.029,35.485,32.674
39.781,33.942,42.097,39.931999999999995,35.486,32.591
39.624,33.864000000000004,41.861999999999995,39.836999999999996,35.483000000000004,32.51
39.474000000000004,33.782,41.625,39.742,35.478,32.431
39.33,33.699,41.388999999999996,39.645,35.468,32.352
39.191,33.614000000000004,41.158,39.544000000000004,35.453,32.274
39.056,33.53,40.931999999999995,39.438,35.433,32.196
38.924,33.448,40.714,39.328,35.406,32.116
38.795,33.368,40.503,39.211999999999996,35.372,32.036
38.665,33.293,40.299,39.091,35.334,31.956999999999997
38.536,33.224000000000004,40.099000000000004,38.965,35.289,31.879
38.405,33.16,39.904,38.834,35.239000000000004,31.802
38.273,33.1,39.711,38.698,35.184,31.728
38.14,33.044000000000004,39.521,38.559,35.123000000000005,31.655
38.006,32.988,39.332,38.417,35.056999999999995,31.583000000000002
37.871,32.934,39.143,38.272,34.986999999999995,31.511999999999997
37.736999999999995,32.878,38.955,38.126,34.912,31.441
37.603,32.82,38.766,37.982,34.832,31.371
37.471,32.759,38.577,37.841,34.747,31.3
37.339,32.695,38.387,37.704,34.659,31.229
37.207,32.63,38.195,37.571999999999996,34.569,31.158
37.077,32.562,38.0,37.448,34.476,31.086
36.948,32.493,37.804,37.334,34.38,31.011999999999997
36.821999999999996,32.423,37.608000000000004,37.229,34.283,30.936999999999998
36.701,32.353,37.411,37.135999999999996,34.184,30.86
36.586999999999996,32.283,37.215,37.055,34.084,30.781999999999996
36.479,32.214,37.022,36.985,33.982,30.703000000000003
36.378,32.148,36.833,36.926,33.881,30.623
36.285,32.084,36.649,36.878,33.779,30.545
36.2,32.024,36.472,36.84,33.677,30.469
36.122,31.969,36.302,36.811,33.577,30.395
36.051,31.916999999999998,36.139,36.789,33.478,30.325
35.989000000000004,31.868000000000002,35.983000000000004,36.774,33.38,30.258000000000003
35.934,31.819000000000003,35.833,36.765,33.283,30.195999999999998
35.888000000000005,31.77,35.69,36.760999999999996,33.189,30.138
35.848,31.72,35.552,36.760999999999996,33.095,30.083000000000002
35.815,31.671,35.421,36.765,33.001999999999995,30.031999999999996
35.788000000000004,31.622,35.295,36.772,32.91,29.983
35.765,31.573,35.175,36.78,32.818000000000005,29.936
35.745,31.525,35.061,36.787,32.728,29.89
35.727,31.476999999999997,34.952,36.794000000000004,32.638000000000005,29.843000000000004
35.711,31.429000000000002,34.849000000000004,36.797,32.549,29.798000000000002
35.695,31.38,34.751,36.796,32.461999999999996,29.753
35.681,31.331,34.656,36.788000000000004,32.376999999999995,29.711
35.667,31.281,34.564,36.773,32.293,29.673000000000002
35.650999999999996,31.233,34.476,36.751,32.21,29.64
35.635,31.185,34.39,36.72,32.128,29.616
35.615,31.141,34.306999999999995,36.681,32.047,29.607
35.59,31.099,34.227,36.634,31.968000000000004,29.62
35.562,31.059,34.148,36.580999999999996,31.889,29.662
35.53,31.023000000000003,34.071,36.522,31.811,29.744
35.497,30.991,33.996,36.455,31.735,29.875999999999998
35.463,30.963,33.921,36.382,31.660999999999998,30.069000000000003
35.429,30.941,33.846,36.301,31.589000000000002,30.331
35.396,30.927,33.769,36.214,31.518,30.671999999999997
35.361999999999995,30.921999999999997,33.688,36.12,31.448,31.096999999999998
35.33,30.930999999999997,33.603,36.021,31.378,31.608
35.299,30.956,33.513000000000005,35.916,31.309,32.204
35.266999999999996,31.002,33.419000000000004,35.806,31.24,32.879
35.235,31.075,33.321,35.691,31.17,33.622
35.203,31.182,33.22,35.571999999999996,31.101,34.419000000000004
35.172,31.33,33.117,35.45,31.033,35.256
35.14,31.524,33.012,35.324,30.965,36.114000000000004
35.107,31.77,32.907,35.196999999999996,30.899,36.975
35.074,32.068000000000005,32.802,35.067,30.835,37.82
35.039,32.421,32.696,34.936,30.774,38.63
35.001999999999995,32.827,32.593,34.803000000000004,30.715,39.389
34.961999999999996,33.285,32.492,34.669000000000004,30.658,40.083
34.919000000000004,33.787,32.396,34.535,30.601999999999997,40.702
34.873000000000005,34.329,32.303000000000004,34.402,30.549,41.236000000000004
34.824,34.902,32.214,34.27,30.497,41.681000000000004
34.773,35.495,32.13,34.14,30.445999999999998,42.034
34.718,36.095,32.049,34.010999999999996,30.396,42.298
34.662,36.692,31.97,33.883,30.346,42.474
34.604,37.274,31.892,33.757,30.296999999999997,42.57
34.546,37.83,31.815,33.632,30.248,42.592
34.491,38.351,31.735,33.508,30.2,42.549
34.437,38.828,31.654,33.388000000000005,30.153000000000002,42.451
34.385999999999996,39.254,31.569000000000003,33.27,30.105,42.306999999999995
34.339,39.625,31.48,33.154,30.058000000000003,42.128
34.295,39.937,31.388,33.04,30.011,41.92100000000001
34.256,40.187,31.293000000000003,32.926,29.964000000000002,41.695
34.218,40.376999999999995,31.195,32.814,29.916999999999998,41.457
34.181999999999995,40.507,31.096999999999998,32.702,29.87,41.211999999999996
34.147,40.58,30.998,32.59,29.824,40.966
34.111999999999995,40.602,30.901,32.479,29.779,40.723
34.078,40.576,30.805,32.367,29.735,40.486999999999995
34.043,40.51,30.712,32.256,29.693,40.259
34.006,40.409,30.623,32.146,29.651,40.042
33.968,40.28,30.539,32.036,29.609,39.834
33.926,40.129,30.458000000000002,31.928,29.565,39.635
33.882,39.963,30.38,31.823,29.521,39.444
33.834,39.787,30.304000000000002,31.72,29.476999999999997,39.260999999999996
33.784,39.606,30.229,31.621,29.436,39.083
33.732,39.426,30.155,31.525,29.399,38.911
33.679,39.248000000000005,30.08,31.432,29.368000000000002,38.741
33.624,39.074,30.003,31.344,29.344,38.573
33.569,38.906,29.926,31.261,29.33,38.405
33.515,38.744,29.846999999999998,31.182,29.326999999999998,38.236
33.465,38.588,29.768,31.107,29.338,38.068000000000005
33.417,38.438,29.689,31.035999999999998,29.371,37.9
33.372,38.291,29.61,30.967,29.430999999999997,37.73
33.329,38.148,29.531999999999996,30.9,29.53,37.561
33.289,38.006,29.458000000000002,30.834,29.677,37.39
33.251,37.865,29.386999999999997,30.77,29.881999999999998,37.217
33.214,37.724000000000004,29.320999999999998,30.706,30.156999999999996,37.043
33.178000000000004,37.580999999999996,29.259,30.643,30.508000000000003,36.871
33.141,37.437,29.201,30.58,30.941999999999997,36.703
33.101,37.292,29.148000000000003,30.519000000000002,31.459,36.541
33.056999999999995,37.147,29.099,30.459,32.06,36.385999999999996
33.01,37.001,29.055,30.399,32.736999999999995,36.24
32.959,36.857,29.013,30.34,33.481,36.105
32.906,36.713,28.973000000000003,30.281,34.275999999999996,35.981
32.852,36.571,28.934,30.221,35.107,35.87
32.799,36.431999999999995,28.897,30.160999999999998,35.952,35.772
32.746,36.294000000000004,28.86,30.1,36.795,35.686
32.696,36.158,28.823,30.037,37.615,35.613
32.649,36.023,28.785,29.974,38.393,35.552
32.607,35.89,28.748,29.910999999999998,39.114000000000004,35.503
32.57,35.759,28.709,29.848000000000003,39.766,35.466
32.539,35.63,28.671,29.785,40.336999999999996,35.44
32.516,35.504,28.631999999999998,29.721,40.821999999999996,35.425
32.503,35.383,28.590999999999998,29.659000000000002,41.214,35.421
32.503,35.266999999999996,28.551,29.598000000000003,41.513999999999996,35.427
32.516,35.158,28.511,29.541999999999998,41.725,35.443000000000005
32.545,35.056999999999995,28.471,29.491,41.85,35.465
32.591,34.961999999999996,28.433000000000003,29.45,41.898,35.494
32.658,34.876,28.397,29.423000000000002,41.876999999999995,35.528
32.748000000000005,34.798,28.366,29.416,41.797,35.565
32.863,34.728,28.34,29.436999999999998,41.669,35.605
33.01,34.666,28.320999999999998,29.495,41.503,35.647
33.196,34.611,28.313000000000002,29.601999999999997,41.31,35.688
33.433,34.564,28.316999999999997,29.766,41.097,35.728
33.73,34.525,28.338,29.997,40.875,35.764
34.095,34.494,28.383000000000003,30.302,40.65,35.793
34.533,34.471,28.462,30.686999999999998,40.425,35.816
35.041,34.457,28.581999999999997,31.156999999999996,40.205999999999996,35.830999999999996
35.616,34.45,28.755,31.712,39.996,35.838
36.249,34.449,28.99,32.346,39.798,35.838
36.927,34.452,29.298000000000002,33.053000000000004,39.611999999999995,35.830999999999996
37.635999999999996,34.458,29.686999999999998,33.823,39.438,35.817
38.36,34.464,30.160999999999998,34.641999999999996,39.275999999999996,35.796
39.085,34.468,30.723000000000003,35.494,39.126,35.77
39.792,34.469,31.371,36.361999999999995,38.985,35.736999999999995
40.469,34.464,32.101,37.227,38.854,35.696999999999996
41.101000000000006,34.453,32.902,38.073,38.731,35.649
41.678000000000004,34.434,33.763000000000005,38.882,38.611999999999995,35.593
42.193000000000005,34.406,34.667,39.637,38.497,35.528
42.64,34.369,35.596,40.327,38.384,35.455
43.016000000000005,34.324,36.535,40.941,38.271,35.373000000000005
43.318999999999996,34.272,37.467,41.475,38.155,35.283
43.551,34.213,38.375,41.924,38.036,35.185
43.713,34.149,39.245,42.288999999999994,37.912,35.080999999999996
43.809,34.082,40.063,42.571000000000005,37.784,34.972
43.843,34.013000000000005,40.816,42.775,37.652,34.859
43.821999999999996,33.943000000000005,41.495,42.906000000000006,37.516,34.743
43.754,33.873000000000005,42.092,42.97,37.376,34.625
43.646,33.804,42.602,42.976000000000006,37.235,34.505
43.504,33.736999999999995,43.023999999999994,42.933,37.093,34.385999999999996
43.336999999999996,33.673,43.358000000000004,42.851000000000006,36.951,34.266999999999996
43.15,33.611999999999995,43.605,42.738,36.812,34.150999999999996
42.95,33.555,43.77,42.601000000000006,36.676,34.037
42.74100000000001,33.501,43.86,42.448,36.545,33.926
42.528999999999996,33.449,43.882,42.284,36.422,33.817
42.316,33.399,43.843999999999994,42.113,36.306,33.71
42.106,33.35,43.753,41.941,36.199,33.605
41.901,33.301,43.618,41.772,36.103,33.503
41.701,33.251,43.449,41.61,36.016,33.403
41.507,33.2,43.253,41.456,35.941,33.304
41.318999999999996,33.147,43.038000000000004,41.31399999999999,35.875,33.209
41.137,33.092,42.812,41.181999999999995,35.819,33.117
40.961000000000006,33.034,42.57899999999999,41.06100000000001,35.771,33.027
40.789,32.972,42.345,40.951,35.731,32.939
40.62,32.908,42.114,40.849000000000004,35.7,32.853
40.453,32.841,41.888999999999996,40.754,35.676,32.769
40.288000000000004,32.771,41.67,40.664,35.658,32.686
40.124,32.7,41.458999999999996,40.577,35.645,32.601
39.961,32.625,41.255,40.49,35.635999999999996,32.516
39.799,32.548,41.058,40.400999999999996,35.63,32.429
39.635999999999996,32.469,40.868,40.308,35.626,32.341
39.471,32.388000000000005,40.683,40.21,35.624,32.251999999999995
39.305,32.308,40.501,40.105,35.623000000000005,32.16
39.137,32.229,40.321,39.995,35.622,32.068000000000005
38.967,32.153,40.141999999999996,39.879,35.621,31.975
38.794000000000004,32.08,39.961999999999996,39.756,35.618,31.881999999999998
38.62,32.012,39.781,39.626999999999995,35.611,31.791
38.446,31.948,39.598,39.493,35.599000000000004,31.701999999999998
38.271,31.888,39.412,39.356,35.582,31.616999999999997
38.098,31.831999999999997,39.223,39.215,35.558,31.535
37.925,31.779,39.03,39.074,35.527,31.456999999999997
37.755,31.728,38.835,38.934,35.489000000000004,31.383000000000003
37.59,31.68,38.637,38.796,35.444,31.313000000000002
37.43,31.633000000000003,38.436,38.661,35.391999999999996,31.248
37.277,31.59,38.232,38.53,35.333,31.186999999999998
37.132,31.549,38.028,38.403,35.268,31.13
36.997,31.51,37.823,38.284,35.198,31.076
36.872,31.473000000000003,37.621,38.172,35.123000000000005,31.024
36.757,31.436999999999998,37.42,38.07,35.045,30.974
36.652,31.401999999999997,37.223,37.979,34.965,30.925
36.556999999999995,31.366,37.029,37.899,34.883,30.878
36.473,31.33,36.841,37.830999999999996,34.801,30.831
36.4,31.291999999999998,36.659,37.774,34.716,30.785
36.336,31.253,36.484,37.729,34.629,30.739
36.282,31.21,36.317,37.695,34.54,30.691999999999997
36.235,31.165,36.158,37.67,34.45,30.645
36.195,31.118000000000002,36.007,37.654,34.358000000000004,30.596
36.159,31.070999999999998,35.865,37.644,34.266,30.546
36.128,31.024,35.732,37.638000000000005,34.174,30.496
36.099000000000004,30.976,35.607,37.635,34.083,30.445
36.073,30.93,35.489000000000004,37.634,33.994,30.394000000000002
36.048,30.884,35.376999999999995,37.634,33.909,30.343000000000004
36.024,30.840999999999998,35.273,37.633,33.826,30.294
36.001,30.799,35.175,37.629,33.745,30.249000000000002
35.976,30.76,35.083,37.623000000000005,33.666,30.206999999999997
35.95,30.725,34.997,37.613,33.589,30.174
35.921,30.694000000000003,34.916,37.599000000000004,33.513000000000005,30.151
35.89,30.67,34.841,37.582,33.437,30.147
35.856,30.656,34.771,37.558,33.361,30.166999999999998
35.821,30.654,34.704,37.528,33.286,30.223000000000003
35.786,30.665,34.64,37.492,33.21,30.325
35.751999999999995,30.695,34.576,37.448,33.134,30.485
35.718,30.747,34.509,37.396,33.058,30.714000000000002
35.684,30.828000000000003,34.44,37.336999999999996,32.983000000000004,31.021
35.649,30.943,34.368,37.269,32.907,31.416
35.613,31.096999999999998,34.292,37.194,32.83,31.901999999999997
35.575,31.294,34.213,37.114000000000004,32.754,32.479
35.537,31.538,34.13,37.028,32.678000000000004,33.144
35.497,31.83,34.044000000000004,36.937,32.603,33.889
35.455999999999996,32.171,33.955999999999996,36.843,32.529,34.701
35.414,32.558,33.865,36.746,32.458,35.564
35.371,32.988,33.772,36.647,32.388000000000005,36.459
35.326,33.458,33.676,36.545,32.321999999999996,37.366
35.279,33.961999999999996,33.580999999999996,36.441,32.259,38.266
35.23,34.491,33.491,36.332,32.198,39.137
35.179,35.035,33.407,36.221,32.139,39.961
35.126999999999995,35.586,33.328,36.106,32.082,40.72
35.075,36.132,33.253,35.986999999999995,32.025,41.402
35.023,36.663000000000004,33.177,35.865,31.969,41.998000000000005
34.972,37.169000000000004,33.1,35.738,31.913,42.5
34.921,37.641999999999996,33.018,35.609,31.858,42.907
34.87,38.074,32.931999999999995,35.478,31.802,43.22
34.817,38.46,32.839,35.344,31.747,43.43899999999999
34.760999999999996,38.796,32.74,35.21,31.693,43.571000000000005
34.703,39.079,32.635,35.074,31.638,43.62
34.644,39.306999999999995,32.524,34.938,31.584,43.598
34.585,39.48,32.409,34.8,31.53,43.511
34.527,39.601,32.291,34.662,31.474,43.371
34.47,39.672,32.171,34.525,31.418000000000003,43.188
34.415,39.695,32.049,34.388000000000005,31.361,42.972
34.36,39.676,31.929000000000002,34.253,31.304000000000002,42.732
34.306,39.619,31.808000000000003,34.12,31.247,42.478
34.251999999999995,39.53,31.688000000000002,33.99,31.19,42.217
34.196,39.415,31.568,33.863,31.135,41.955
34.14,39.281,31.45,33.738,31.081999999999997,41.696999999999996
34.082,39.131,31.335,33.615,31.031,41.446000000000005
34.022,38.967,31.224,33.493,30.982,41.206
33.959,38.794000000000004,31.119,33.374,30.936,40.978
33.895,38.614000000000004,31.02,33.258,30.892,40.763000000000005
33.83,38.431,30.928,33.144,30.849,40.561
33.763000000000005,38.249,30.844,33.032,30.805,40.37
33.696,38.07,30.766,32.922,30.761999999999997,40.189
33.631,37.897,30.693,32.814,30.719,40.016
33.568000000000005,37.731,30.624000000000002,32.708,30.676,39.849000000000004
33.507,37.573,30.558000000000003,32.603,30.634,39.685
33.449,37.422,30.494,32.5,30.593000000000004,39.525
33.394,37.278,30.430999999999997,32.397,30.555,39.366
33.339,37.138000000000005,30.369,32.295,30.52,39.205999999999996
33.288000000000004,37.001,30.309,32.193000000000005,30.487,39.043
33.238,36.866,30.249000000000002,32.09,30.458000000000002,38.876
33.192,36.733000000000004,30.188000000000002,31.987,30.432,38.705999999999996
33.148,36.601,30.128,31.884,30.408,38.532
33.106,36.468,30.066,31.781999999999996,30.386,38.355
33.067,36.336,30.005,31.68,30.365,38.178000000000004
33.029,36.204,29.941999999999997,31.579,30.346,37.999
32.992,36.073,29.881,31.479,30.328000000000003,37.82
32.953,35.942,29.822,31.381999999999998,30.313000000000002,37.641
32.914,35.812,29.766,31.289,30.303,37.463
32.875,35.681999999999995,29.712,31.199,30.296999999999997,37.289
32.836999999999996,35.554,29.659000000000002,31.112,30.299,37.119
32.799,35.429,29.608,31.029,30.313000000000002,36.957
32.760999999999996,35.306999999999995,29.557,30.949,30.345,36.801
32.723,35.187,29.506,30.872,30.403000000000002,36.655
32.685,35.069,29.456,30.796999999999997,30.496,36.519
32.647,34.953,29.405,30.721999999999998,30.636,36.393
32.609,34.839,29.355,30.647,30.835,36.28
32.571999999999996,34.728,29.305999999999997,30.573,31.101999999999997,36.18
32.536,34.62,29.258000000000003,30.499000000000002,31.445999999999998,36.092
32.501,34.516999999999996,29.212,30.424,31.873,36.018
32.466,34.42,29.166,30.35,32.382,35.959
32.433,34.329,29.121,30.274,32.971,35.914
32.402,34.245,29.076,30.198,33.632,35.883
32.376,34.167,29.031999999999996,30.123,34.352,35.866
32.357,34.097,28.988000000000003,30.046999999999997,35.118,35.863
32.347,34.034,28.945,29.971999999999998,35.913000000000004,35.873000000000005
32.347,33.978,28.903000000000002,29.899,36.719,35.895
32.363,33.93,28.863000000000003,29.826,37.516999999999996,35.927
32.395,33.889,28.825,29.755,38.288000000000004,35.966
32.446,33.855,28.79,29.686,39.016,36.010999999999996
32.518,33.829,28.759,29.619,39.684,36.058
32.611999999999995,33.809,28.732,29.552,40.283,36.107
32.733000000000004,33.795,28.711,29.486,40.802,36.156
32.885,33.786,28.7,29.421999999999997,41.236000000000004,36.202
33.075,33.781,28.703000000000003,29.359,41.583,36.245
33.312,33.778,28.723000000000003,29.296999999999997,41.842,36.282
33.604,33.775,28.767,29.239,42.016999999999996,36.312
33.958,33.772,28.840999999999998,29.185,42.113,36.330999999999996
34.375,33.766,28.955,29.14,42.136,36.341
34.857,33.755,29.12,29.107,42.093999999999994,36.34
35.398,33.739000000000004,29.346,29.093000000000004,41.998000000000005,36.33
35.993,33.717,29.644000000000002,29.105,41.856,36.311
36.632,33.688,30.025,29.153000000000002,41.68,36.282
37.301,33.653,30.496,29.246,41.479,36.244
37.985,33.61,31.065,29.396,41.263000000000005,36.196999999999996
38.669000000000004,33.561,31.733,29.612,41.038999999999994,36.141
39.336999999999996,33.506,32.498000000000005,29.905,40.815,36.078
39.976,33.446,33.353,30.281,40.595,36.006
40.573,33.384,34.288000000000004,30.744,40.383,35.927
41.119,33.321,35.287,31.294,40.181,35.841
41.604,33.259,36.333,31.927,39.991,35.748000000000005
42.025,33.2,37.406,32.637,39.812,35.648
42.376000000000005,33.145,38.485,33.411,39.643,35.544000000000004
42.658,33.095,39.549,34.236,39.483000000000004,35.438
42.871,33.049,40.577,35.095,39.332,35.33
43.016999999999996,33.005,41.552,35.969,39.187,35.222
43.102,32.961999999999996,42.457,36.839,39.047,35.114000000000004
43.131,32.92,43.278,37.688,38.91,35.007
43.11,32.878,44.006,38.496,38.774,34.900999999999996
43.048,32.833,44.637,39.25,38.64,34.796
42.949,32.785,45.168,39.938,38.506,34.69
42.821999999999996,32.733000000000004,45.602,40.551,38.371,34.585
42.672,32.676,45.942,41.082,38.238,34.478
42.505,32.614000000000004,46.193000000000005,41.526,38.105,34.371
42.324,32.548,46.36,41.88399999999999,37.973,34.263000000000005
42.135,32.478,46.451,42.158,37.841,34.154
41.94,32.405,46.475,42.353,37.709,34.045
41.743,32.330999999999996,46.43899999999999,42.475,37.577,33.934
41.547,32.255,46.354,42.534,37.446,33.821
41.353,32.18,46.227,42.538999999999994,37.315,33.705
41.162,32.105,46.067,42.5,37.184,33.585
40.975,32.031,45.882,42.425,37.055,33.463
40.793,31.96,45.677,42.323,36.929,33.341
40.614000000000004,31.89,45.46,42.201,36.805,33.22
40.439,31.824,45.235,42.066,36.686,33.103
40.268,31.759,45.006,41.925,36.571999999999996,32.992
40.1,31.699,44.778,41.783,36.464,32.888000000000005
39.935,31.643,44.553000000000004,41.644,36.361999999999995,32.79
39.772,31.590999999999998,44.335,41.511,36.266999999999996,32.698
39.609,31.543000000000003,44.123999999999995,41.386,36.179,32.613
39.446999999999996,31.497,43.92100000000001,41.269,36.099000000000004,32.533
39.285,31.453000000000003,43.724,41.16,36.028,32.459
39.124,31.41,43.534,41.059,35.965,32.389
38.963,31.368000000000002,43.348,40.966,35.909,32.321999999999996
38.802,31.325,43.166000000000004,40.881,35.861,32.257
38.641,31.281,42.983999999999995,40.801,35.821,32.192
38.48,31.235,42.803000000000004,40.726,35.788000000000004,32.126
38.321999999999996,31.189,42.62,40.650999999999996,35.76,32.059
38.166,31.141,42.435,40.577,35.738,31.991
38.013000000000005,31.094,42.248000000000005,40.501,35.721,31.921
37.863,31.046,42.058,40.425,35.708,31.848000000000003
37.716,30.999000000000002,41.865,40.345,35.696,31.774
37.571,30.951,41.669,40.260999999999996,35.687,31.697
37.429,30.904,41.471000000000004,40.172,35.679,31.618000000000002
37.289,30.857,41.272,40.076,35.669000000000004,31.538
37.154,30.811,41.071999999999996,39.972,35.657,31.458000000000002
37.022,30.765,40.871,39.861,35.641999999999996,31.378
36.896,30.72,40.669000000000004,39.742,35.623000000000005,31.296999999999997
36.775999999999996,30.677,40.466,39.618,35.601,31.218000000000004
36.662,30.635,40.262,39.489000000000004,35.571999999999996,31.139
36.556,30.595,40.059,39.356,35.536,31.061
36.46,30.555999999999997,39.858000000000004,39.221,35.495,30.984
36.372,30.52,39.66,39.086,35.448,30.909000000000002
36.293,30.486,39.466,38.953,35.394,30.838
36.222,30.455,39.278,38.824,35.334,30.772
36.159,30.429000000000002,39.097,38.702,35.269,30.709
36.105,30.409000000000002,38.926,38.588,35.199,30.65
36.058,30.398000000000003,38.764,38.482,35.126,30.595
36.019,30.398000000000003,38.611,38.387,35.05,30.541999999999998
35.986999999999995,30.410999999999998,38.467,38.3,34.972,30.491999999999997
35.96,30.44,38.332,38.223,34.895,30.444000000000003
35.935,30.491999999999997,38.205999999999996,38.155,34.818000000000005,30.4
35.913000000000004,30.572,38.086999999999996,38.097,34.741,30.358
35.891999999999996,30.688000000000002,37.977,38.05,34.666,30.32
35.871,30.846999999999998,37.873000000000005,38.012,34.591,30.287
35.849000000000004,31.055999999999997,37.775999999999996,37.983000000000004,34.518,30.259
35.827,31.32,37.686,37.961999999999996,34.445,30.236
35.803000000000004,31.642,37.604,37.946999999999996,34.372,30.219
35.775999999999996,32.021,37.527,37.938,34.3,30.21
35.747,32.458,37.455,37.933,34.228,30.215
35.716,32.946999999999996,37.387,37.93,34.157,30.24
35.681,33.483000000000004,37.324,37.929,34.086999999999996,30.294
35.641999999999996,34.059,37.262,37.928000000000004,34.016999999999996,30.388
35.599000000000004,34.665,37.202,37.925,33.946999999999996,30.534000000000002
35.554,35.29,37.141999999999996,37.92,33.876999999999995,30.743000000000002
35.508,35.924,37.082,37.913000000000004,33.805,31.026
35.46,36.553000000000004,37.02,37.902,33.732,31.394000000000002
35.412,37.166,36.957,37.887,33.659,31.851
35.361999999999995,37.749,36.891,37.868,33.585,32.4
35.313,38.294000000000004,36.821999999999996,37.842,33.51,33.04
35.264,38.79,36.749,37.811,33.435,33.764
35.214,39.23,36.671,37.773,33.359,34.559
35.165,39.61,36.588,37.729,33.283,35.411
35.117,39.926,36.499,37.676,33.207,36.302
35.069,40.179,36.404,37.616,33.129,37.211
35.022,40.37,36.303000000000004,37.547,33.052,38.119
34.974000000000004,40.503,36.195,37.47,32.975,39.003
34.927,40.58,36.082,37.384,32.9,39.846
34.878,40.608000000000004,35.965,37.291,32.827,40.63
34.827,40.591,35.844,37.191,32.756,41.339
34.775,40.534,35.718,37.086,32.688,41.964
34.72,40.443000000000005,35.59,36.977,32.623000000000005,42.496
34.663000000000004,40.321999999999996,35.458,36.865,32.56,42.93
34.603,40.18,35.323,36.75,32.5,43.266000000000005
34.543,40.021,35.186,36.633,32.441,43.505
34.481,39.851,35.047,36.516,32.385,43.653
34.418,39.674,34.906,36.399,32.33,43.718999999999994
34.352,39.493,34.764,36.281,32.275,43.713
34.287,39.311,34.623000000000005,36.164,32.22,43.643
34.222,39.129,34.481,36.046,32.167,43.522
34.159,38.95,34.34,35.928000000000004,32.115,43.358999999999995
34.097,38.773,34.2,35.81,32.062,43.163999999999994
34.037,38.599000000000004,34.059,35.691,32.01,42.948
33.978,38.428000000000004,33.92,35.571,31.956999999999997,42.718999999999994
33.92,38.262,33.784,35.449,31.905,42.485
33.861999999999995,38.102,33.652,35.327,31.851999999999997,42.251000000000005
33.805,37.945,33.525,35.204,31.798000000000002,42.022
33.748000000000005,37.793,33.400999999999996,35.082,31.741999999999997,41.8
33.692,37.641999999999996,33.281,34.96,31.684,41.586999999999996
33.634,37.493,33.165,34.838,31.625,41.385
33.576,37.345,33.053000000000004,34.716,31.566999999999997,41.195
33.516999999999996,37.196,32.942,34.595,31.513,41.016000000000005
33.457,37.047,32.833,34.475,31.462,40.847
33.396,36.898,32.724000000000004,34.357,31.414,40.686
33.335,36.748000000000005,32.615,34.241,31.368000000000002,40.531
33.274,36.599000000000004,32.506,34.126999999999995,31.325,40.381
33.216,36.45,32.398,34.016,31.284000000000002,40.235
33.161,36.303000000000004,32.289,33.908,31.243000000000002,40.09
33.11,36.158,32.181,33.803000000000004,31.2,39.945
33.063,36.016,32.074,33.7,31.156999999999996,39.798
33.019,35.878,31.969,33.6,31.113000000000003,39.647
32.978,35.745,31.866999999999997,33.501999999999995,31.066999999999997,39.493
32.94,35.619,31.766,33.406,31.021,39.334
32.904,35.498000000000005,31.668000000000003,33.312,30.975,39.171
32.87,35.383,31.570999999999998,33.218,30.930999999999997,39.006
32.836,35.274,31.476,33.126,30.888,38.839
32.803000000000004,35.171,31.384,33.034,30.846,38.671
32.769,35.074,31.294,32.943000000000005,30.805,38.501999999999995
32.733000000000004,34.982,31.208000000000002,32.852,30.766,38.334
32.695,34.896,31.124000000000002,32.760999999999996,30.729,38.168
32.654,34.815,31.043000000000003,32.672,30.695999999999998,38.005
32.613,34.739000000000004,30.964000000000002,32.583,30.666999999999998,37.845
32.571,34.67,30.886999999999997,32.496,30.645,37.692
32.53,34.605,30.813000000000002,32.41,30.63,37.545
32.488,34.545,30.739,32.325,30.622,37.407
32.446999999999996,34.489000000000004,30.666999999999998,32.241,30.625,37.279
32.407,34.436,30.596999999999998,32.159,30.641,37.161
32.369,34.387,30.529,32.078,30.674,37.056
32.332,34.34,30.463,31.999000000000002,30.73,36.964
32.297,34.296,30.398000000000003,31.921999999999997,30.816999999999997,36.884
32.268,34.254,30.335,31.846,30.944000000000003,36.817
32.244,34.214,30.272,31.773000000000003,31.121,36.763000000000005
32.228,34.177,30.211,31.701,31.355,36.723
32.22,34.141999999999996,30.15,31.631,31.653000000000002,36.695
32.222,34.11,30.089000000000002,31.564,32.023,36.681999999999995
32.236999999999995,34.08,30.029,31.497,32.465,36.681
32.266999999999996,34.054,29.97,31.430999999999997,32.979,36.692
32.315,34.029,29.912,31.365,33.559,36.713
32.382,34.007,29.858,31.3,34.196999999999996,36.743
32.472,33.985,29.805999999999997,31.234,34.88,36.781
32.586,33.964,29.76,31.168000000000003,35.596,36.823
32.73,33.941,29.721999999999998,31.103,36.327,36.87
32.908,33.916,29.694000000000003,31.038,37.056,36.919000000000004
33.129,33.888000000000005,29.68,30.974,37.766,36.97
33.404,33.854,29.685,30.912,38.441,37.021
33.741,33.816,29.713,30.85,39.066,37.069
34.145,33.772,29.773000000000003,30.789,39.63,37.113
34.618,33.724000000000004,29.874000000000002,30.728,40.122,37.150999999999996
35.156,33.671,30.026,30.668000000000003,40.536,37.181999999999995
35.754,33.614000000000004,30.238000000000003,30.608,40.869,37.203
36.4,33.552,30.521,30.548000000000002,41.12,37.213
37.082,33.486999999999995,30.883000000000003,30.488000000000003,41.292,37.213
37.784,33.418,31.331,30.428,41.39,37.2
38.492,33.347,31.87,30.366999999999997,41.422,37.176
39.189,33.272,32.501,30.305999999999997,41.395,37.141
39.863,33.196999999999996,33.22,30.244,41.317,37.096
40.499,33.12,34.019,30.183000000000003,41.196999999999996,37.042
41.088,33.044000000000004,34.888000000000005,30.122,41.043,36.978
41.618,32.968,35.811,30.06,40.864000000000004,36.906
42.085,32.895,36.772,30.0,40.667,36.825
42.483999999999995,32.823,37.751999999999995,29.943,40.457,36.736999999999995
42.812,32.754,38.732,29.89,40.242,36.641999999999996
43.068000000000005,32.689,39.692,29.846,40.025999999999996,36.542
43.254,32.626,40.615,29.813000000000002,39.813,36.436
43.373000000000005,32.564,41.486000000000004,29.796999999999997,39.607,36.326
43.428999999999995,32.504,42.291000000000004,29.804000000000002,39.411,36.211999999999996
43.428000000000004,32.444,43.016999999999996,29.840999999999998,39.225,36.094
43.376000000000005,32.383,43.656000000000006,29.916999999999998,39.05,35.973
43.281000000000006,32.32,44.203,30.043000000000003,38.885,35.849000000000004
43.152,32.256,44.657,30.226999999999997,38.73,35.722
42.994,32.189,45.018,30.476999999999997,38.583,35.594
42.816,32.121,45.288999999999994,30.8,38.443000000000005,35.463
42.622,32.054,45.477,31.198,38.308,35.330999999999996
42.418,31.989,45.591,31.673000000000002,38.177,35.198
42.21,31.926,45.647,32.221,38.049,35.065
42.001000000000005,31.865,45.653,32.836999999999996,37.922,34.933
41.794,31.805999999999997,45.617,33.512,37.795,34.802
41.592,31.749000000000002,45.545,34.233000000000004,37.668,34.673
41.394,31.693,45.442,34.986,37.539,34.546
41.202,31.636999999999997,45.31100000000001,35.756,37.409,34.42
41.015,31.583000000000002,45.155,36.524,37.278,34.296
40.834,31.529,44.978,37.274,37.147,34.172
40.658,31.478,44.782,37.991,37.016999999999996,34.051
40.485,31.428,44.571999999999996,38.661,36.888000000000005,33.931
40.315,31.379,44.35,39.274,36.76,33.814
40.146,31.33,44.121,39.821999999999996,36.634,33.7
39.978,31.281,43.888999999999996,40.299,36.510999999999996,33.589
39.811,31.230999999999998,43.657,40.701,36.39,33.481
39.644,31.179000000000002,43.427,41.03,36.272,33.376
39.477,31.125,43.2,41.287,36.16,33.274
39.31,31.068,42.978,41.476000000000006,36.052,33.176
39.141999999999996,31.009,42.762,41.601000000000006,35.95,33.080999999999996
38.972,30.949,42.551,41.67100000000001,35.852,32.988
38.802,30.888,42.345,41.692,35.76,32.897
38.632,30.828000000000003,42.143,41.674,35.674,32.808
38.463,30.767,41.943999999999996,41.623000000000005,35.593,32.72
38.295,30.706999999999997,41.748000000000005,41.545,35.518,32.632
38.128,30.65,41.553999999999995,41.449,35.448,32.542
37.963,30.596999999999998,41.361999999999995,41.339,35.385,32.452
37.801,30.549,41.17100000000001,41.221000000000004,35.327,32.36
37.644,30.508000000000003,40.981,41.099,35.275999999999996,32.266
37.493,30.474,40.793,40.979,35.231,32.17
37.349000000000004,30.45,40.607,40.861,35.19,32.071999999999996
37.213,30.436999999999998,40.422,40.748000000000005,35.153,31.971999999999998
37.083,30.436,40.239000000000004,40.64,35.12,31.871
36.959,30.448,40.055,40.537,35.088,31.771
36.84,30.476999999999997,39.872,40.439,35.056999999999995,31.671999999999997
36.728,30.526999999999997,39.688,40.348,35.025999999999996,31.574
36.62,30.604,39.506,40.263000000000005,34.994,31.48
36.519,30.714000000000002,39.326,40.184,34.963,31.39
36.422,30.864,39.149,40.107,34.933,31.305999999999997
36.328,31.061999999999998,38.977,40.031,34.904,31.229
36.24,31.314,38.809,39.954,34.876,31.16
36.157,31.625999999999998,38.647,39.875,34.846,31.096999999999998
36.080999999999996,31.999000000000002,38.493,39.793,34.815,31.039
36.010999999999996,32.434,38.347,39.705999999999996,34.78,30.985
35.946999999999996,32.929,38.209,39.615,34.741,30.934
35.89,33.479,38.078,39.518,34.698,30.885
35.84,34.079,37.954,39.415,34.653,30.835
35.798,34.717,37.839,39.306,34.604,30.785999999999998
35.763000000000005,35.383,37.731,39.192,34.551,30.735
35.733000000000004,36.062,37.631,39.073,34.493,30.683000000000003
35.709,36.742,37.539,38.952,34.431999999999995,30.629
35.688,37.409,37.454,38.829,34.367,30.574
35.669000000000004,38.051,37.376,38.705999999999996,34.298,30.519000000000002
35.65,38.656,37.308,38.583,34.225,30.464000000000002
35.633,39.216,37.247,38.461,34.148,30.410999999999998
35.614000000000004,39.723,37.193000000000005,38.343,34.069,30.364
35.595,40.171,37.144,38.23,33.989000000000004,30.326999999999998
35.571999999999996,40.555,37.097,38.125,33.909,30.308000000000003
35.545,40.874,37.051,38.028,33.829,30.311999999999998
35.515,41.126000000000005,37.003,37.941,33.749,30.35
35.481,41.31100000000001,36.953,37.863,33.67,30.430999999999997
35.445,41.433,36.898,37.796,33.592,30.565
35.405,41.495,36.839,37.739000000000004,33.515,30.761999999999997
35.363,41.504,36.775999999999996,37.693000000000005,33.439,31.034000000000002
35.318000000000005,41.466,36.709,37.658,33.366,31.386999999999997
35.27,41.388000000000005,36.637,37.633,33.295,31.829
35.22,41.277,36.561,37.618,33.226,32.36
35.166,41.141000000000005,36.479,37.611,33.16,32.979
35.109,40.986999999999995,36.391999999999996,37.611,33.095,33.678000000000004
35.048,40.818000000000005,36.299,37.618,33.033,34.446
34.984,40.64,36.2,37.629,32.971,35.268
34.917,40.457,36.095,37.645,32.91,36.128
34.849000000000004,40.272,35.984,37.663000000000004,32.848,37.006
34.78,40.089,35.867,37.683,32.786,37.882
34.711,39.91,35.747,37.703,32.724000000000004,38.736
34.641999999999996,39.734,35.623000000000005,37.722,32.661,39.55
34.571999999999996,39.564,35.496,37.739000000000004,32.598,40.306999999999995
34.501999999999995,39.4,35.368,37.753,32.535,40.995
34.431,39.24,35.239000000000004,37.764,32.471,41.601000000000006
34.36,39.084,35.111,37.769,32.407,42.12
34.29,38.929,34.983000000000004,37.766999999999996,32.344,42.547
34.22,38.775,34.856,37.756,32.28,42.881
34.150999999999996,38.621,34.731,37.736,32.216,43.126000000000005
34.083,38.465,34.606,37.707,32.150999999999996,43.284
34.016,38.306999999999995,34.483000000000004,37.667,32.086999999999996,43.365
33.949,38.147,34.363,37.618,32.025,43.376000000000005
33.883,37.986,34.246,37.558,31.964000000000002,43.326
33.818000000000005,37.821999999999996,34.131,37.489000000000004,31.906,43.225
33.751999999999995,37.658,34.016999999999996,37.411,31.851,43.083999999999996
33.687,37.493,33.905,37.323,31.798000000000002,42.912
33.623000000000005,37.328,33.794000000000004,37.228,31.746,42.718
33.56,37.164,33.684,37.126,31.691999999999997,42.508
33.498000000000005,37.003,33.578,37.02,31.636999999999997,42.29
33.436,36.846,33.479,36.91,31.58,42.068999999999996
33.375,36.694,33.389,36.796,31.523000000000003,41.848
33.313,36.55,33.308,36.681,31.465,41.633
33.25,36.412,33.231,36.564,31.41,41.425
33.188,36.281,33.157,36.448,31.355999999999998,41.227
33.126999999999995,36.156,33.080999999999996,36.330999999999996,31.305,41.038000000000004
33.066,36.037,32.999,36.216,31.256999999999998,40.858000000000004
33.006,35.923,32.91,36.102,31.212,40.686
32.948,35.813,32.812,35.989000000000004,31.171,40.52
32.891,35.709,32.704,35.876,31.131999999999998,40.36
32.836999999999996,35.609,32.586,35.765,31.095,40.205
32.785,35.514,32.459,35.654,31.059,40.054
32.736999999999995,35.426,32.326,35.544000000000004,31.025,39.904
32.691,35.344,32.19,35.434,30.991999999999997,39.755
32.649,35.268,32.052,35.324,30.961,39.605
32.609,35.199,31.916,35.213,30.930999999999997,39.454
32.57,35.135999999999996,31.781999999999996,35.101,30.903000000000002,39.301
32.532,35.08,31.653000000000002,34.989000000000004,30.877,39.147
32.494,35.032,31.53,34.875,30.851,38.991
32.455,34.99,31.414,34.762,30.826,38.834
32.417,34.953,31.305,34.647,30.801,38.677
32.379,34.922,31.203000000000003,34.532,30.775,38.521
32.34,34.894,31.109,34.417,30.747,38.365
32.301,34.868,31.023000000000003,34.301,30.718000000000004,38.211999999999996
32.260999999999996,34.843,30.945,34.187,30.686,38.062
32.221,34.817,30.874000000000002,34.073,30.651,37.915
32.181,34.791,30.808000000000003,33.961999999999996,30.613000000000003,37.774
32.141999999999996,34.769,30.747,33.852,30.574,37.638000000000005
32.104,34.756,30.69,33.743,30.533,37.509
32.067,34.753,30.635,33.637,30.491999999999997,37.388000000000005
32.032,34.757,30.583000000000002,33.535,30.453000000000003,37.274
31.998,34.764,30.531999999999996,33.437,30.416999999999998,37.17
31.965999999999998,34.769,30.479,33.343,30.385,37.076
31.936999999999998,34.766,30.426,33.251999999999995,30.36,36.994
31.912,34.751999999999995,30.372,33.165,30.342,36.924
31.892,34.722,30.316999999999997,33.080999999999996,30.334,36.866
31.878,34.678000000000004,30.261,33.0,30.336,36.82
31.874000000000002,34.619,30.203000000000003,32.919000000000004,30.351,36.787
31.881,34.546,30.145,32.84,30.383000000000003,36.766
31.901,34.459,30.087,32.760999999999996,30.436,36.759
31.936,34.361,30.03,32.681,30.517,36.763000000000005
31.986,34.254,29.973000000000003,32.602,30.635,36.777
32.055,34.141999999999996,29.916999999999998,32.521,30.796999999999997,36.8
32.146,34.027,29.862,32.44,31.011999999999997,36.83
32.259,33.912,29.808000000000003,32.358000000000004,31.285999999999998,36.865
32.399,33.801,29.756,32.275999999999996,31.625999999999998,36.903
32.569,33.694,29.704,32.195,32.034,36.942
32.775,33.593,29.653000000000002,32.114000000000004,32.510999999999996,36.98
33.027,33.498000000000005,29.603,32.035,33.054,37.015
33.332,33.41,29.555999999999997,31.956,33.657,37.045
33.695,33.328,29.511999999999997,31.88,34.309,37.068000000000005
34.119,33.251999999999995,29.475,31.805999999999997,34.999,37.083
34.603,33.181999999999995,29.447,31.734,35.711,37.086999999999996
35.143,33.118,29.432,31.665,36.429,37.079
35.729,33.058,29.435,31.598000000000003,37.139,37.061
36.352,33.001,29.465999999999998,31.533,37.823,37.032
36.997,32.945,29.534000000000002,31.47,38.466,36.994
37.652,32.889,29.649,31.408,39.056999999999995,36.948
38.3,32.832,29.825,31.346999999999998,39.583,36.893
38.927,32.772,30.073,31.287,40.039,36.832
39.519,32.707,30.404,31.229,40.418,36.764
40.064,32.638000000000005,30.826,31.173000000000002,40.718,36.69
40.554,32.566,31.344,31.119,40.94,36.611999999999995
40.983000000000004,32.492,31.959,31.066999999999997,41.086999999999996,36.53
41.346000000000004,32.415,32.667,31.016,41.165,36.445
41.641999999999996,32.336999999999996,33.463,30.965,41.178000000000004,36.355
41.871,32.259,34.334,30.914,41.135,36.262
42.034,32.181,35.268,30.862,41.04600000000001,36.164
42.135,32.106,36.246,30.809,40.918,36.06
42.178000000000004,32.035,37.251,30.755,40.762,35.952
42.169,31.969,38.262,30.7,40.585,35.838
42.111999999999995,31.906999999999996,39.26,30.647,40.395,35.721
42.016000000000005,31.851,40.226,30.592,40.199,35.601
41.888000000000005,31.802,41.141999999999996,30.537,40.001999999999995,35.479
41.735,31.756,41.99100000000001,30.483,39.806999999999995,35.356
41.56399999999999,31.715,42.75899999999999,30.428,39.617,35.23
41.382,31.675,43.435,30.374000000000002,39.435,35.104
41.193999999999996,31.636999999999997,44.012,30.32,39.262,34.977
41.004,31.599,44.485,30.266,39.097,34.85
40.816,31.559,44.853,30.212,38.942,34.724000000000004
40.632,31.516,45.119,30.158,38.795,34.599000000000004
40.453,31.47,45.287,30.105999999999998,38.657,34.474000000000004
40.28,31.421999999999997,45.367,30.053,38.525999999999996,34.35
40.113,31.37,45.368,30.002,38.4,34.225
39.952,31.315,45.302,29.951,38.277,34.1
39.797,31.259,45.181000000000004,29.901,38.156,33.974000000000004
39.648,31.203000000000003,45.016000000000005,29.851999999999997,38.037,33.849000000000004
39.504,31.147,44.818999999999996,29.803,37.917,33.727
39.364000000000004,31.093000000000004,44.599,29.759,37.796,33.609
39.227,31.043000000000003,44.367,29.721,37.675,33.496
39.093,30.997,44.131,29.694000000000003,37.552,33.387
38.961,30.956,43.897,29.68,37.428000000000004,33.283
38.829,30.923000000000002,43.67,29.685,37.302,33.181999999999995
38.696,30.898000000000003,43.455,29.715999999999998,37.175,33.083
38.563,30.881,43.251999999999995,29.78,37.049,32.986999999999995
38.427,30.875,43.062,29.888,36.924,32.893
38.29,30.88,42.885,30.046999999999997,36.8,32.8
38.149,30.899,42.718999999999994,30.267,36.679,32.705999999999996
38.007,30.936,42.562,30.555,36.562,32.613
37.863,30.997,42.41,30.915,36.449,32.518
37.718,31.085,42.263000000000005,31.351,36.339,32.422
37.571999999999996,31.209,42.11600000000001,31.861,36.235,32.324
37.428000000000004,31.375,41.968999999999994,32.443000000000005,36.134,32.224000000000004
37.284,31.589000000000002,41.818999999999996,33.086,36.039,32.123000000000005
37.143,31.858,41.665,33.781,35.948,32.021
37.005,32.186,41.508,34.514,35.863,31.92
36.871,32.577,41.347,35.27,35.785,31.820999999999998
36.742,33.03,41.18,36.034,35.718,31.724
36.618,33.545,41.008,36.789,35.662,31.631
36.5,34.117,40.830999999999996,37.52,35.614000000000004,31.539
36.39,34.739000000000004,40.649,38.211,35.571999999999996,31.449
36.29,35.399,40.464,38.853,35.535,31.359
36.199,36.086999999999996,40.278,39.433,35.501,31.27
36.117,36.789,40.091,39.945,35.467,31.182
36.044000000000004,37.491,39.904,40.384,35.433,31.095
35.979,38.181,39.72,40.749,35.398,31.01
35.92,38.842,39.538000000000004,41.043,35.361,30.927
35.866,39.464,39.361,41.266000000000005,35.321999999999996,30.846999999999998
35.816,40.035,39.189,41.424,35.279,30.768
35.77,40.548,39.024,41.522,35.234,30.69
35.726,40.997,38.866,41.567,35.187,30.613000000000003
35.686,41.376000000000005,38.717,41.566,35.137,30.535
35.648,41.684,38.577,41.528,35.084,30.458000000000002
35.613,41.922,38.446999999999996,41.458999999999996,35.029,30.381999999999998
35.580999999999996,42.091,38.326,41.367,34.972,30.308000000000003
35.551,42.196000000000005,38.216,41.256,34.913000000000004,30.236
35.525,42.244,38.115,41.133,34.852,30.166
35.501,42.24,38.022,41.001999999999995,34.789,30.099
35.479,42.191,37.936,40.867,34.725,30.034000000000002
35.458,42.105,37.856,40.732,34.661,29.973000000000003
35.439,41.988,37.781,40.601,34.595,29.918000000000003
35.422,41.847,37.71,40.474000000000004,34.529,29.871
35.404,41.687,37.643,40.353,34.464,29.838
35.385999999999996,41.513999999999996,37.579,40.238,34.399,29.824
35.367,41.331,37.518,40.13,34.335,29.836
35.345,41.145,37.46,40.028,34.272,29.884
35.32,40.957,37.403,39.931,34.209,29.976
35.292,40.771,37.348,39.838,34.145,30.122
35.26,40.589,37.294000000000004,39.748000000000005,34.080999999999996,30.334
35.226,40.411,37.24,39.658,34.016,30.619
35.189,40.238,37.186,39.568000000000005,33.949,30.986
35.149,40.071,37.13,39.476,33.883,31.439
35.108000000000004,39.908,37.071,39.379,33.817,31.98
35.064,39.749,37.009,39.279,33.751,32.605
35.02,39.591,36.944,39.174,33.685,33.308
34.974000000000004,39.435,36.876999999999995,39.065,33.619,34.079
34.926,39.279,36.806999999999995,38.953,33.554,34.902
34.876,39.123000000000005,36.736,38.836999999999996,33.488,35.76
34.824,38.967,36.662,38.718,33.42,36.635999999999996
34.77,38.81,36.586,38.597,33.352,37.508
34.713,38.653,36.507,38.475,33.284,38.36
34.653,38.495,36.424,38.354,33.215,39.172
34.591,38.336999999999996,36.336999999999996,38.235,33.146,39.927
34.525999999999996,38.179,36.244,38.119,33.078,40.614000000000004
34.459,38.021,36.145,38.008,33.010999999999996,41.222
34.39,37.861999999999995,36.041,37.9,32.946999999999996,41.744
34.318000000000005,37.705,35.933,37.798,32.884,42.174
34.245,37.551,35.821,37.701,32.821,42.512
34.171,37.399,35.704,37.61,32.758,42.76
34.095,37.251999999999995,35.584,37.527,32.696,42.922
34.016999999999996,37.109,35.461999999999996,37.452,32.633,43.006
33.939,36.972,35.336,37.385,32.57,43.021
33.861999999999995,36.84,35.208,37.328,32.506,42.975
33.786,36.715,35.078,37.281,32.44,42.879
33.711999999999996,36.596,34.945,37.243,32.37,42.742
33.64,36.485,34.811,37.216,32.296,42.574
33.57,36.382,34.676,37.196999999999996,32.218,42.385
33.503,36.289,34.541,37.186,32.139,42.181999999999995
33.441,36.203,34.409,37.181,32.06,41.971000000000004
33.382,36.126,34.279,37.181,31.985,41.758
33.327,36.056,34.154,37.185,31.913,41.547
33.275,35.992,34.035,37.192,31.846999999999998,41.342
33.226,35.935,33.92,37.2,31.787,41.145
33.179,35.884,33.809,37.208,31.733,40.958
33.135,35.836999999999996,33.701,37.214,31.685,40.783
33.092,35.795,33.595,37.218,31.643,40.618
33.051,35.757,33.49,37.22,31.605,40.463
33.01,35.723,33.387,37.22,31.57,40.316
32.971,35.693000000000005,33.284,37.215,31.535999999999998,40.176
32.931,35.666,33.181,37.205999999999996,31.503,40.039
32.891,35.641999999999996,33.078,37.192,31.471,39.902
32.851,35.619,32.976,37.171,31.436999999999998,39.765
32.81,35.597,32.874,37.144,31.401999999999997,39.625
32.769,35.575,32.771,37.109,31.364,39.482
32.727,35.552,32.669000000000004,37.067,31.325,39.335
32.684,35.525999999999996,32.566,37.019,31.285,39.184
32.64,35.496,32.464,36.966,31.246,39.028
32.595,35.463,32.361999999999995,36.906,31.206,38.867
32.549,35.426,32.259,36.84,31.168000000000003,38.701
32.504,35.384,32.157,36.768,31.13,38.53
32.458,35.336,32.056,36.69,31.092,38.357
32.413000000000004,35.284,31.956,36.607,31.054000000000002,38.181999999999995
32.369,35.227,31.859,36.519,31.016,38.007
32.324,35.168,31.761999999999997,36.425,30.978,37.834
32.28,35.106,31.666,36.325,30.939,37.664
32.238,35.043,31.57,36.219,30.899,37.501999999999995
32.198,34.977,31.474,36.108000000000004,30.861,37.349000000000004
32.161,34.909,31.379,35.993,30.825,37.205999999999996
32.128,34.839,31.285999999999998,35.875,30.791,37.075
32.1,34.765,31.194000000000003,35.756,30.759,36.958
32.078,34.689,31.104,35.635999999999996,30.729,36.854
32.063,34.611,31.017,35.516999999999996,30.7,36.766
32.056,34.533,30.932,35.399,30.673000000000002,36.692
32.056,34.455,30.849,35.282,30.646,36.633
32.067,34.378,30.769000000000002,35.167,30.619,36.589
32.091,34.301,30.691999999999997,35.053000000000004,30.590999999999998,36.56
32.129,34.226,30.618000000000002,34.939,30.563000000000002,36.544000000000004
32.183,34.153,30.546999999999997,34.827,30.535,36.542
32.257,34.08,30.478,34.717,30.506999999999998,36.551
32.351,34.009,30.412,34.607,30.483,36.57
32.47,33.937,30.348000000000003,34.499,30.462,36.598
32.62,33.865,30.285999999999998,34.391,30.445999999999998,36.634
32.811,33.793,30.225,34.284,30.435,36.676
33.053000000000004,33.722,30.165,34.174,30.433000000000003,36.722
33.357,33.65,30.105,34.055,30.441999999999997,36.768
33.73,33.579,30.045,33.925,30.463,36.813
34.174,33.508,29.982,33.788000000000004,30.502,36.854
34.689,33.437,29.92,33.647,30.563000000000002,36.889
35.266999999999996,33.365,29.858,33.506,30.656999999999996,36.918
35.898,33.294000000000004,29.796999999999997,33.369,30.793000000000003,36.939
36.571999999999996,33.223,29.738000000000003,33.239000000000004,30.982,36.951
37.274,33.150999999999996,29.679000000000002,33.119,31.234,36.955
37.988,33.079,29.621,33.010999999999996,31.555999999999997,36.949
38.699,33.006,29.565,32.915,31.953000000000003,36.929
39.391999999999996,32.934,29.511,32.832,32.427,36.89
40.052,32.861,29.461,32.76,32.977,36.830999999999996
40.668,32.788000000000004,29.415,32.698,33.597,36.756
41.229,32.717,29.375999999999998,32.644,34.279,36.666
41.727,32.648,29.343000000000004,32.596,35.009,36.567
42.157,32.580999999999996,29.319000000000003,32.551,35.771,36.463
42.516000000000005,32.516999999999996,29.305999999999997,32.506,36.55,36.356
42.802,32.453,29.307,32.461,37.326,36.248000000000005
43.016000000000005,32.391,29.326,32.412,38.08,36.141999999999996
43.16,32.329,29.372,32.361,38.797,36.04
43.24,32.27,29.454,32.306999999999995,39.46,35.94
43.261,32.211999999999996,29.584,32.249,40.058,35.844
43.23,32.156,29.772,32.186,40.580999999999996,35.751999999999995
43.153999999999996,32.102,30.031999999999996,32.12,41.023999999999994,35.661
43.041000000000004,32.051,30.372,32.051,41.382,35.57
42.897,32.001999999999995,30.8,31.979,41.655,35.478
42.729,31.956999999999997,31.320999999999998,31.905,41.846000000000004,35.384
42.541000000000004,31.913,31.934,31.83,41.96,35.288000000000004
42.341,31.869,32.635999999999996,31.755,42.003,35.189
42.133,31.825,33.418,31.68,41.983999999999995,35.086
41.92100000000001,31.781,34.268,31.605,41.911,34.979
41.71,31.735,35.171,31.531999999999996,41.794,34.868
41.501999999999995,31.686999999999998,36.111,31.459,41.641000000000005,34.751
41.3,31.636999999999997,37.07,31.386,41.461000000000006,34.629
41.105,31.586,38.027,31.315,41.263999999999996,34.501
40.918,31.533,38.965,31.244,41.058,34.369
40.74,31.482,39.867,31.175,40.847,34.235
