Trial 1:0back,Trial 2:2back,Trial 3:3back,Trial 4:2back,Trial 5:3back,Trial 6:0back
32.861999999999995,37.797,35.228,33.78,35.968,34.755
32.839,38.17,35.194,33.756,35.931999999999995,34.676
32.838,38.523,35.158,33.732,35.900999999999996,34.597
32.861,38.852,35.12,33.71,35.875,34.516999999999996
32.91,39.155,35.08,33.689,35.853,34.436
32.985,39.431999999999995,35.038000000000004,33.668,35.836999999999996,34.356
33.086,39.68,34.995,33.646,35.826,34.275
33.211,39.900999999999996,34.952,33.624,35.819,34.195
33.358000000000004,40.093,34.909,33.599000000000004,35.816,34.115
33.523,40.257,34.866,33.571999999999996,35.818000000000005,34.037
33.704,40.395,34.824,33.541,35.823,33.961
33.896,40.507,34.782,33.507,35.832,33.885999999999996
34.096,40.595,34.741,33.469,35.843,33.813
34.298,40.659,34.7,33.428000000000004,35.855,33.741
34.5,40.703,34.659,33.384,35.869,33.672
34.698,40.728,34.619,33.34,35.883,33.604
34.887,40.735,34.579,33.296,35.896,33.539
35.066,40.728,34.54,33.256,35.909,33.475
35.232,40.708,34.501,33.22,35.92,33.413000000000004
35.384,40.678000000000004,34.464,33.192,35.929,33.351
35.52,40.638000000000005,34.429,33.175,35.936,33.29
35.641,40.589,34.395,33.172,35.941,33.229
35.746,40.534,34.363,33.185,35.942,33.168
35.836999999999996,40.473,34.332,33.219,35.94,33.107
35.913000000000004,40.408,34.304,33.277,35.934,33.046
35.976,40.339,34.278,33.361,35.924,32.984
36.027,40.266999999999996,34.253,33.472,35.909,32.924
36.067,40.193000000000005,34.231,33.611999999999995,35.891,32.865
36.098,40.118,34.211,33.78,35.869,32.808
36.119,40.041,34.193000000000005,33.975,35.843,32.754
36.13,39.964,34.177,34.196,35.815,32.703
36.133,39.887,34.162,34.44,35.783,32.657
36.126,39.809,34.148,34.705,35.748000000000005,32.617
36.109,39.731,34.135,34.986999999999995,35.71,32.583
36.083,39.653,34.123000000000005,35.283,35.669000000000004,32.556999999999995
36.048,39.574,34.11,35.588,35.625,32.542
36.003,39.493,34.097,35.898,35.579,32.54
35.948,39.411,34.084,36.208,35.532,32.552
35.885,39.328,34.07,36.514,35.485,32.58
35.814,39.244,34.054,36.811,35.438,32.626
35.735,39.158,34.037,37.096,35.391999999999996,32.691
35.65,39.07,34.018,37.364000000000004,35.347,32.778
35.559,38.98,33.998000000000005,37.613,35.304,32.885999999999996
35.463,38.889,33.977,37.838,35.26,33.016999999999996
35.364000000000004,38.798,33.954,38.038000000000004,35.218,33.17
35.263000000000005,38.705999999999996,33.929,38.21,35.176,33.343
35.161,38.616,33.903,38.355,35.134,33.536
35.059,38.528,33.876,38.472,35.093,33.745
34.957,38.443000000000005,33.849000000000004,38.563,35.052,33.969
34.856,38.363,33.821,38.629,35.012,34.203
34.756,38.287,33.791,38.673,34.973,34.445
34.657,38.218,33.760999999999996,38.696,34.933,34.689
34.556999999999995,38.156,33.729,38.701,34.893,34.931999999999995
34.457,38.101,33.696999999999996,38.69,34.853,35.169000000000004
34.355,38.053000000000004,33.664,38.666,34.811,35.398
34.251999999999995,38.013000000000005,33.631,38.632,34.769,35.614000000000004
34.148,37.98,33.597,38.59,34.726,35.815
34.041,37.954,33.564,38.543,34.681999999999995,35.997
33.931,37.934,33.53,38.494,34.637,36.161
33.82,37.922,33.496,38.444,34.592,36.303000000000004
33.707,37.914,33.461999999999996,38.394,34.548,36.424
33.592,37.912,33.429,38.346,34.505,36.523
33.476,37.914,33.398,38.302,34.461999999999996,36.599000000000004
33.359,37.919000000000004,33.367,38.262,34.421,36.653
33.243,37.928000000000004,33.339,38.227,34.382,36.686
33.128,37.938,33.312,38.196,34.343,36.699
33.014,37.949,33.288000000000004,38.17,34.305,36.695
32.900999999999996,37.961,33.268,38.148,34.268,36.674
32.79,37.971,33.251,38.129,34.231,36.639
32.68,37.979,33.239000000000004,38.113,34.195,36.591
32.571,37.985,33.233000000000004,38.1,34.158,36.533
32.465,37.986999999999995,33.234,38.089,34.122,36.466
32.361999999999995,37.986,33.243,38.08,34.086,36.391999999999996
32.260999999999996,37.981,33.260999999999996,38.071,34.05,36.312
32.164,37.972,33.289,38.061,34.015,36.231
32.069,37.958,33.326,38.051,33.981,36.148
31.978,37.94,33.375,38.037,33.946999999999996,36.066
31.889,37.918,33.433,38.022,33.915,35.986
31.803,37.891999999999996,33.503,38.004,33.883,35.909
31.719,37.861999999999995,33.583,37.983000000000004,33.851,35.836999999999996
31.638,37.829,33.672,37.961,33.82,35.77
31.561,37.791,33.77,37.938,33.79,35.709
31.486,37.749,33.876,37.913000000000004,33.76,35.655
31.415,37.703,33.986999999999995,37.887,33.73,35.607
31.346999999999998,37.654,34.104,37.86,33.702,35.565
31.281999999999996,37.601,34.223,37.832,33.674,35.529
31.221,37.544000000000004,34.345,37.804,33.646,35.497
31.162,37.483000000000004,34.467,37.775999999999996,33.62,35.469
31.108,37.419000000000004,34.586999999999996,37.747,33.594,35.444
31.059,37.351,34.705,37.718,33.568000000000005,35.421
31.015,37.279,34.819,37.691,33.544000000000004,35.398
30.976,37.204,34.928000000000004,37.665,33.519,35.376
30.944000000000003,37.126,35.029,37.641,33.495,35.353
30.916999999999998,37.045,35.123000000000005,37.621,33.471,35.328
30.897,36.961999999999996,35.208,37.605,33.446999999999996,35.3
30.881999999999998,36.878,35.283,37.593,33.422,35.268
30.873,36.792,35.348,37.586,33.397,35.232
30.868000000000002,36.707,35.403,37.583,33.372,35.192
30.866999999999997,36.621,35.446999999999996,37.583,33.347,35.148
30.87,36.535,35.481,37.586999999999996,33.323,35.101
30.877,36.449,35.505,37.594,33.3,35.05
30.888,36.363,35.52,37.603,33.279,34.997
30.901,36.277,35.525,37.614000000000004,33.26,34.942
30.916,36.191,35.522,37.626,33.242,34.885
30.933000000000003,36.105,35.512,37.637,33.226,34.829
30.951,36.019,35.496,37.648,33.211,34.774
30.968000000000004,35.931999999999995,35.475,37.657,33.196,34.72
30.984,35.844,35.45,37.664,33.181,34.668
30.997,35.755,35.425,37.668,33.165,34.618
31.006,35.666,35.399,37.669000000000004,33.147,34.571999999999996
31.01,35.576,35.373000000000005,37.665,33.126999999999995,34.528
31.011,35.486,35.349000000000004,37.658,33.105,34.489000000000004
31.006,35.394,35.327,37.647,33.080999999999996,34.454
30.997,35.302,35.308,37.633,33.054,34.423
30.984,35.208,35.292,37.615,33.025999999999996,34.399
30.965999999999998,35.114000000000004,35.278,37.592,32.997,34.379
30.945,35.019,35.266999999999996,37.565,32.966,34.366
30.92,34.924,35.259,37.533,32.935,34.358000000000004
30.893,34.829,35.253,37.497,32.903,34.355
30.864,34.736,35.25,37.457,32.871,34.357
30.834,34.643,35.248000000000005,37.413000000000004,32.839,34.363
30.805,34.552,35.249,37.366,32.808,34.372
30.778000000000002,34.463,35.251,37.316,32.779,34.383
30.754,34.376999999999995,35.255,37.262,32.753,34.394
30.733,34.295,35.259,37.207,32.731,34.406
30.715999999999998,34.217,35.264,37.15,32.714,34.416
30.705,34.143,35.269,37.092,32.704,34.423
30.699,34.071999999999996,35.273,37.033,32.703,34.427
30.698,34.006,35.275999999999996,36.973,32.711999999999996,34.427
30.703000000000003,33.943000000000005,35.275999999999996,36.912,32.732,34.421
30.713,33.882,35.275,36.851,32.764,34.411
30.729,33.824,35.272,36.787,32.812,34.396
30.749000000000002,33.768,35.266999999999996,36.723,32.875,34.375
30.772,33.714,35.26,36.656,32.955999999999996,34.349000000000004
30.799,33.66,35.251999999999995,36.589,33.054,34.318000000000005
30.828000000000003,33.607,35.244,36.52,33.171,34.282
30.857,33.555,35.234,36.451,33.306999999999995,34.241
30.886,33.501999999999995,35.224000000000004,36.382,33.461,34.196
30.913,33.45,35.213,36.313,33.632,34.147
30.936999999999998,33.399,35.201,36.245,33.82,34.094
30.956999999999997,33.348,35.189,36.177,34.024,34.039
30.973000000000003,33.298,35.175,36.11,34.241,33.981
30.983,33.247,35.161,36.043,34.47,33.921
30.988000000000003,33.196,35.145,35.976,34.707,33.86
30.986,33.146,35.129,35.909,34.949,33.797
30.976999999999997,33.095,35.113,35.842,35.194,33.733000000000004
30.961,33.044000000000004,35.097,35.775,35.438,33.667
30.939,32.994,35.082,35.71,35.678000000000004,33.601
30.912,32.946,35.068000000000005,35.644,35.91,33.533
30.88,32.899,35.055,35.58,36.133,33.464
30.845,32.855,35.045,35.514,36.344,33.394
30.809,32.812,35.037,35.449,36.541,33.323
30.774,32.772,35.032,35.383,36.721,33.25
30.741999999999997,32.733000000000004,35.03,35.316,36.885999999999996,33.176
30.717,32.696999999999996,35.031,35.248000000000005,37.033,33.1
30.701999999999998,32.663000000000004,35.034,35.179,37.162,33.024
30.699,32.631,35.039,35.11,37.275,32.948
30.711,32.602,35.046,35.04,37.371,32.872
30.741999999999997,32.575,35.055,34.969,37.45,32.796
30.793000000000003,32.551,35.065,34.899,37.514,32.723
30.866999999999997,32.53,35.075,34.828,37.563,32.650999999999996
30.964000000000002,32.510999999999996,35.086,34.757,37.598,32.582
31.085,32.494,35.095,34.686,37.62,32.515
31.229,32.477,35.103,34.615,37.632,32.453
31.396,32.463,35.109,34.546,37.634,32.394
31.581,32.449,35.111,34.476,37.628,32.339
31.783,32.437,35.109,34.408,37.617,32.288000000000004
31.997,32.426,35.104,34.341,37.6,32.241
32.221,32.416,35.095,34.274,37.579,32.198
32.449,32.405,35.080999999999996,34.209,37.556999999999995,32.16
32.677,32.395,35.064,34.145,37.533,32.125
32.902,32.384,35.044000000000004,34.082,37.509,32.092
33.12,32.373000000000005,35.02,34.021,37.485,32.063
33.326,32.361999999999995,34.994,33.961,37.463,32.037
33.519,32.349000000000004,34.965,33.902,37.443000000000005,32.013000000000005
33.696999999999996,32.336,34.935,33.845,37.425,31.991
33.858000000000004,32.321999999999996,34.905,33.789,37.409,31.971
34.001,32.308,34.873000000000005,33.735,37.396,31.954
34.126,32.293,34.843,33.683,37.384,31.939
34.233000000000004,32.279,34.812,33.632,37.375,31.924
34.323,32.265,34.783,33.582,37.366,31.91
34.397,32.251999999999995,34.754,33.535,37.358000000000004,31.897
34.457,32.242,34.726,33.489000000000004,37.349000000000004,31.884
34.501999999999995,32.236999999999995,34.698,33.445,37.34,31.871
34.536,32.238,34.67,33.404,37.328,31.858
34.56,32.246,34.641999999999996,33.365,37.314,31.844
34.576,32.266,34.614000000000004,33.328,37.298,31.829
34.585,32.3,34.585,33.295,37.278,31.814
34.59,32.352,34.556,33.264,37.256,31.796999999999997
34.592,32.423,34.527,33.236,37.231,31.779
34.593,32.519,34.499,33.21,37.204,31.76
34.594,32.641999999999996,34.472,33.187,37.174,31.739
34.595,32.794000000000004,34.446,33.166,37.143,31.717
34.598,32.98,34.421,33.147,37.11,31.693
34.603,33.199,34.398,33.128,37.076,31.669
34.611,33.454,34.376999999999995,33.11,37.041,31.645
34.621,33.742,34.357,33.092,37.006,31.623
34.634,34.064,34.34,33.071999999999996,36.971,31.603
34.650999999999996,34.416,34.326,33.05,36.938,31.587
34.671,34.795,34.313,33.027,36.906,31.576999999999998
34.694,35.196999999999996,34.302,33.001,36.876999999999995,31.575
34.722,35.616,34.294000000000004,32.972,36.851,31.583000000000002
34.751999999999995,36.047,34.287,32.942,36.828,31.605
34.785,36.484,34.281,32.91,36.808,31.641
34.82,36.921,34.277,32.876,36.791,31.694000000000003
34.856,37.354,34.274,32.841,36.777,31.765
34.891999999999996,37.775999999999996,34.271,32.805,36.766,31.855999999999998
34.928000000000004,38.185,34.268,32.766999999999996,36.758,31.965
34.961999999999996,38.576,34.266,32.728,36.754,32.093
34.993,38.945,34.264,32.687,36.751999999999995,32.24
35.021,39.29,34.262,32.646,36.753,32.403
35.045,39.607,34.259,32.603,36.757,32.582
35.064,39.896,34.256,32.56,36.763000000000005,32.773
35.078,40.155,34.253,32.516,36.769,32.976
35.086,40.383,34.25,32.472,36.775999999999996,33.187
35.086999999999996,40.580999999999996,34.247,32.43,36.782,33.402
35.082,40.749,34.245,32.391,36.788000000000004,33.619
35.071,40.888000000000005,34.243,32.357,36.792,33.834
35.053000000000004,41.0,34.242,32.329,36.795,34.044000000000004
35.029,41.086000000000006,34.242,32.308,36.796,34.246
35.0,41.148999999999994,34.242,32.299,36.794000000000004,34.436
34.965,41.191,34.243,32.303000000000004,36.789,34.613
34.927,41.214,34.243,32.323,36.781,34.773
34.884,41.222,34.243,32.361,36.768,34.916
34.838,41.216,34.243,32.421,36.751999999999995,35.04
34.787,41.196999999999996,34.242,32.504,36.732,35.145
34.733000000000004,41.169,34.239000000000004,32.613,36.708,35.231
34.673,41.133,34.235,32.748000000000005,36.68,35.298
34.608000000000004,41.091,34.229,32.91,36.65,35.349000000000004
34.538000000000004,41.042,34.221,33.099000000000004,36.616,35.383
34.46,40.989,34.213,33.314,36.58,35.400999999999996
34.374,40.931,34.204,33.553000000000004,36.542,35.406
34.281,40.868,34.195,33.815,36.501999999999995,35.398
34.179,40.801,34.186,34.096,36.461999999999996,35.38
34.069,40.729,34.176,34.393,36.42,35.352
33.95,40.654,34.167,34.702,36.378,35.318000000000005
33.825,40.575,34.157,35.02,36.335,35.278
33.695,40.492,34.146,35.342,36.293,35.235
33.561,40.406,34.135,35.664,36.25,35.189
33.426,40.316,34.122,35.98,36.207,35.143
33.292,40.221,34.109,36.287,36.165,35.098
33.162,40.123000000000005,34.096,36.58,36.123000000000005,35.053000000000004
33.038000000000004,40.02,34.085,36.857,36.082,35.01
32.922,39.913000000000004,34.077,37.114000000000004,36.04,34.969
32.816,39.803000000000004,34.074,37.349000000000004,35.999,34.931
32.723,39.688,34.078,37.56,35.958,34.896
32.644,39.571,34.089,37.746,35.916,34.864000000000004
32.580999999999996,39.451,34.111,37.906,35.872,34.836
32.533,39.329,34.143,38.041,35.827,34.811
32.503,39.205999999999996,34.187,38.15,35.78,34.788000000000004
32.489000000000004,39.080999999999996,34.243,38.236,35.732,34.768
32.491,38.957,34.311,38.299,35.681999999999995,34.75
32.507,38.833,34.39,38.341,35.632,34.732
32.535,38.711999999999996,34.48,38.364000000000004,35.58,34.716
32.573,38.594,34.580999999999996,38.369,35.528,34.7
32.62,38.482,34.69,38.361,35.476,34.684
32.671,38.376,34.806,38.34,35.423,34.667
32.726,38.277,34.927,38.31,35.37,34.648
32.781,38.188,35.052,38.272,35.317,34.628
32.836,38.107,35.177,38.228,35.263000000000005,34.604
32.889,38.038000000000004,35.301,38.18,35.21,34.578
32.939,37.979,35.42,38.128,35.158,34.549
32.986999999999995,37.93,35.533,38.075,35.107,34.516999999999996
33.033,37.89,35.639,38.022,35.058,34.481
33.075,37.86,35.734,37.969,35.01,34.443000000000005
33.111999999999995,37.836999999999996,35.819,37.917,34.965,34.400999999999996
33.146,37.82,35.893,37.867,34.922,34.358000000000004
33.176,37.806999999999995,35.953,37.819,34.88,34.312
33.207,37.798,36.001999999999995,37.773,34.841,34.266
33.243,37.79,36.038000000000004,37.73,34.803000000000004,34.221
33.285,37.781,36.061,37.688,34.766999999999996,34.176
33.333,37.77,36.071999999999996,37.647,34.731,34.132
33.381,37.757,36.073,37.607,34.696,34.09
33.424,37.739000000000004,36.063,37.566,34.662,34.049
33.452,37.717,36.044000000000004,37.525999999999996,34.628,34.01
33.457,37.69,36.018,37.485,34.593,33.974000000000004
33.433,37.657,35.986,37.443000000000005,34.558,33.941
33.376999999999995,37.618,35.949,37.399,34.522,33.911
33.29,37.573,35.908,37.354,34.486,33.885
33.177,37.522,35.865,37.306999999999995,34.45,33.863
33.046,37.465,35.821999999999996,37.259,34.412,33.845
32.907,37.403,35.779,37.21,34.373000000000005,33.83
32.772,37.338,35.736999999999995,37.159,34.334,33.819
32.650999999999996,37.268,35.698,37.108000000000004,34.295,33.811
32.551,37.196,35.662,37.055,34.256,33.806
32.477,37.121,35.629,37.001999999999995,34.218,33.801
32.43,37.045,35.6,36.949,34.181,33.798
32.407,36.969,35.576,36.896,34.145,33.795
32.404,36.894,35.555,36.844,34.111999999999995,33.79
32.414,36.82,35.539,36.792,34.080999999999996,33.784
32.43,36.748000000000005,35.525999999999996,36.742,34.052,33.775999999999996
32.444,36.678000000000004,35.516,36.694,34.025,33.766
32.452,36.613,35.508,36.647,34.001,33.754
32.45,36.551,35.501,36.603,33.979,33.739000000000004
32.435,36.493,35.495,36.563,33.959,33.723
32.409,36.44,35.489000000000004,36.525,33.939,33.705
32.373000000000005,36.391,35.481,36.491,33.919000000000004,33.686
32.332,36.345,35.473,36.461999999999996,33.899,33.666
32.288000000000004,36.304,35.461999999999996,36.436,33.879,33.645
32.245,36.265,35.449,36.415,33.858000000000004,33.623000000000005
32.205999999999996,36.228,35.434,36.398,33.836999999999996,33.599000000000004
32.173,36.194,35.416,36.384,33.816,33.574
32.144,36.159,35.395,36.373000000000005,33.793,33.548
32.119,36.125,35.371,36.365,33.769,33.521
32.094,36.09,35.344,36.359,33.744,33.493
32.068000000000005,36.054,35.314,36.354,33.716,33.464
32.036,36.016999999999996,35.281,36.35,33.688,33.434
31.997,35.978,35.246,36.345,33.657,33.402
31.949,35.937,35.208,36.339,33.626,33.368
31.89,35.894,35.169000000000004,36.330999999999996,33.593,33.333
31.822,35.849000000000004,35.129,36.319,33.56,33.296
31.746,35.802,35.088,36.304,33.527,33.259
31.665,35.753,35.048,36.284,33.495,33.222
31.586,35.702,35.009,36.259,33.464,33.185
31.513,35.649,34.973,36.23,33.436,33.148
31.451999999999998,35.594,34.939,36.195,33.412,33.11
31.408,35.537,34.908,36.156,33.391999999999996,33.073
31.386,35.48,34.881,36.113,33.378,33.035
31.386999999999997,35.423,34.858000000000004,36.066,33.372,32.997
31.414,35.365,34.839,36.015,33.374,32.958
31.463,35.308,34.825,35.961999999999996,33.388000000000005,32.919000000000004
31.531999999999996,35.251999999999995,34.815,35.904,33.414,32.878
31.618000000000002,35.198,34.81,35.844,33.454,32.836999999999996
31.715999999999998,35.146,34.81,35.78,33.510999999999996,32.794000000000004
31.82,35.096,34.814,35.713,33.584,32.749
31.929000000000002,35.048,34.821999999999996,35.644,33.676,32.704
32.038000000000004,35.0,34.833,35.573,33.787,32.657
32.145,34.953,34.848,35.501,33.916,32.61
32.25,34.906,34.865,35.428000000000004,34.064,32.564
32.351,34.857,34.882,35.354,34.231,32.516999999999996
32.45,34.808,34.9,35.279,34.414,32.47
32.546,34.758,34.917,35.205,34.613,32.423
32.641999999999996,34.707,34.933,35.131,34.825,32.376
32.736999999999995,34.656,34.946,35.058,35.048,32.329
32.830999999999996,34.604,34.955999999999996,34.986,35.28,32.281
32.923,34.553000000000004,34.964,34.916,35.516999999999996,32.234
33.012,34.501999999999995,34.968,34.848,35.757,32.188
33.095,34.452,34.968,34.781,35.996,32.141
33.171,34.405,34.966,34.714,36.231,32.096
33.236999999999995,34.359,34.961,34.648,36.459,32.051
33.291,34.315,34.955,34.582,36.677,32.008
33.334,34.275,34.949,34.515,36.882,31.965
33.364000000000004,34.239000000000004,34.943000000000005,34.446999999999996,37.073,31.923000000000002
33.382,34.207,34.937,34.379,37.248000000000005,31.881999999999998
33.391,34.178000000000004,34.933,34.311,37.405,31.843000000000004
33.391,34.154,34.929,34.244,37.544000000000004,31.805
33.385999999999996,34.133,34.926,34.176,37.663000000000004,31.769000000000002
33.376999999999995,34.115,34.924,34.111,37.764,31.734
33.367,34.098,34.922,34.047,37.847,31.701999999999998
33.357,34.083,34.919000000000004,33.986999999999995,37.911,31.671
33.349000000000004,34.067,34.916,33.929,37.96,31.642
33.346,34.052,34.912,33.874,37.993,31.614
33.347,34.035,34.907,33.821999999999996,38.012,31.586
33.353,34.016,34.899,33.772,38.019,31.559
33.366,33.994,34.888000000000005,33.724000000000004,38.015,31.533
33.383,33.969,34.876,33.676,38.001,31.508000000000003
33.404,33.941,34.861,33.629,37.98,31.484
33.428000000000004,33.91,34.845,33.583,37.954,31.46
33.453,33.875,34.828,33.537,37.922,31.436999999999998
33.478,33.839,34.811,33.491,37.888000000000005,31.415
33.501,33.801,34.795,33.445,37.852,31.394000000000002
33.523,33.762,34.78,33.399,37.814,31.373
33.542,33.723,34.768,33.354,37.775999999999996,31.354
33.561,33.683,34.759,33.31,37.739000000000004,31.335
33.578,33.641999999999996,34.751999999999995,33.266999999999996,37.702,31.318
33.595,33.6,34.748000000000005,33.226,37.667,31.301
33.611999999999995,33.556999999999995,34.747,33.187,37.633,31.285
33.63,33.512,34.749,33.15,37.601,31.27
33.648,33.466,34.754,33.116,37.57,31.255
33.665,33.419000000000004,34.76,33.082,37.54,31.24
33.68,33.37,34.768,33.05,37.51,31.226
33.692,33.32,34.775999999999996,33.018,37.482,31.211
33.7,33.269,34.786,32.986999999999995,37.453,31.195
33.703,33.219,34.795,32.957,37.425,31.179000000000002
33.7,33.17,34.805,32.927,37.398,31.162
33.69,33.125,34.814,32.897,37.37,31.145
33.673,33.085,34.823,32.869,37.341,31.127
33.65,33.053000000000004,34.830999999999996,32.842,37.312,31.109
33.621,33.033,34.839,32.816,37.281,31.092
33.586,33.028,34.845,32.793,37.248000000000005,31.076
33.547,33.04,34.85,32.771,37.211999999999996,31.063000000000002
33.506,33.074,34.854,32.751999999999995,37.175,31.054000000000002
33.465,33.132,34.856,32.736999999999995,37.135,31.05
33.426,33.217,34.857,32.725,37.093,31.054000000000002
33.39,33.33,34.856,32.716,37.05,31.066999999999997
33.357,33.474000000000004,34.855,32.711999999999996,37.007,31.092
33.329,33.649,34.852,32.71,36.963,31.128
33.303000000000004,33.854,34.849000000000004,32.711999999999996,36.921,31.178
33.281,34.088,34.843,32.716,36.88,31.241
33.259,34.35,34.833,32.722,36.841,31.32
33.238,34.635999999999996,34.82,32.729,36.804,31.414
33.217,34.945,34.802,32.736,36.77,31.523000000000003
33.195,35.273,34.778,32.742,36.736999999999995,31.647
33.172,35.615,34.748000000000005,32.747,36.705999999999996,31.785999999999998
33.149,35.969,34.711,32.751999999999995,36.677,31.939
33.126,36.327,34.668,32.755,36.65,32.103
33.104,36.686,34.619,32.757,36.626,32.278
33.084,37.042,34.564,32.758,36.603,32.461
33.067,37.389,34.504,32.757,36.583,32.649
33.052,37.723,34.44,32.755,36.564,32.84
33.039,38.041,34.372,32.751,36.548,33.032
33.028,38.339,34.303000000000004,32.744,36.533,33.22
33.019,38.615,34.234,32.736,36.52,33.404
33.012,38.865,34.164,32.725,36.508,33.579
33.005,39.088,34.096,32.711999999999996,36.497,33.745
33.0,39.284,34.031,32.696999999999996,36.486999999999995,33.9
32.995,39.453,33.968,32.68,36.478,34.041
32.991,39.596,33.909,32.66,36.468,34.169000000000004
32.988,39.714,33.855,32.638000000000005,36.459,34.281
32.984,39.806999999999995,33.805,32.614000000000004,36.448,34.379
32.982,39.878,33.759,32.588,36.436,34.461999999999996
32.981,39.927,33.717,32.561,36.423,34.529
32.98,39.959,33.68,32.532,36.407,34.582
32.981,39.973,33.647,32.501999999999995,36.388000000000005,34.621
32.983000000000004,39.972,33.618,32.471,36.367,34.648
32.985,39.957,33.595,32.439,36.342,34.663000000000004
32.986,39.929,33.577,32.406,36.314,34.668
32.985,39.89,33.568000000000005,32.374,36.281,34.666
32.983000000000004,39.84,33.567,32.344,36.245,34.656
32.977,39.782,33.576,32.315,36.205999999999996,34.641
32.968,39.715,33.596,32.291,36.163000000000004,34.623000000000005
32.955999999999996,39.641,33.626999999999995,32.271,36.117,34.604
32.94,39.561,33.672,32.259,36.069,34.584
32.921,39.476,33.729,32.255,36.018,34.565
32.900999999999996,39.385999999999996,33.801,32.260999999999996,35.964,34.549
32.88,39.293,33.885999999999996,32.282,35.91,34.536
32.86,39.196999999999996,33.986,32.319,35.855,34.528
32.842,39.099000000000004,34.099000000000004,32.375,35.799,34.524
32.827,38.999,34.224000000000004,32.452,35.744,34.525
32.815,38.899,34.359,32.553000000000004,35.688,34.53
32.808,38.797,34.503,32.678000000000004,35.633,34.54
32.804,38.694,34.654,32.828,35.579,34.552
32.803000000000004,38.588,34.809,33.001999999999995,35.524,34.567
32.804,38.481,34.967,33.2,35.471,34.583
32.806,38.372,35.124,33.421,35.418,34.599000000000004
32.806,38.262,35.279,33.662,35.365,34.613
32.804,38.15,35.429,33.921,35.312,34.625
32.799,38.036,35.573,34.194,35.260999999999996,34.634
32.79,37.923,35.709,34.478,35.21,34.641
32.779,37.81,35.834,34.768,35.16,34.643
32.765,37.698,35.946999999999996,35.06,35.111999999999995,34.641999999999996
32.748000000000005,37.59,36.048,35.349000000000004,35.064,34.635999999999996
32.73,37.485,36.134,35.631,35.016999999999996,34.626999999999995
32.711,37.385999999999996,36.204,35.903,34.97,34.611999999999995
32.691,37.294000000000004,36.259,36.16,34.924,34.592
32.671,37.21,36.298,36.4,34.876,34.567
32.649,37.134,36.321999999999996,36.619,34.828,34.537
32.626999999999995,37.068000000000005,36.332,36.817,34.779,34.504
32.604,37.010999999999996,36.33,36.991,34.729,34.468
32.580999999999996,36.964,36.319,37.141,34.678000000000004,34.43
32.556999999999995,36.927,36.299,37.266,34.626,34.39
32.533,36.899,36.274,37.367,34.574,34.349000000000004
32.51,36.88,36.246,37.444,34.522,34.306999999999995
32.486999999999995,36.871,36.217,37.5,34.471,34.266999999999996
32.465,36.869,36.189,37.534,34.42,34.228
32.444,36.874,36.162,37.549,34.371,34.193000000000005
32.425,36.885,36.138000000000005,37.546,34.323,34.162
32.407,36.902,36.118,37.528,34.275,34.135
32.391999999999996,36.923,36.103,37.496,34.229,34.113
32.378,36.946999999999996,36.091,37.451,34.183,34.097
32.365,36.973,36.083,37.397,34.139,34.086
32.355,37.0,36.08,37.336,34.096,34.079
32.345,37.027,36.079,37.269,34.054,34.078
32.338,37.053000000000004,36.082,37.199,34.013000000000005,34.08
32.333,37.077,36.086,37.126999999999995,33.974000000000004,34.085
32.330999999999996,37.099000000000004,36.09,37.055,33.936,34.092
32.335,37.117,36.094,36.984,33.899,34.101
32.345,37.131,36.097,36.915,33.863,34.109
32.363,37.141,36.099000000000004,36.849000000000004,33.827,34.118
32.391999999999996,37.147,36.098,36.787,33.792,34.125
32.433,37.149,36.095,36.728,33.758,34.132
32.486999999999995,37.146,36.09,36.674,33.724000000000004,34.135999999999996
32.556,37.138000000000005,36.082,36.624,33.691,34.138000000000005
32.639,37.125,36.071999999999996,36.577,33.659,34.135999999999996
32.736999999999995,37.107,36.059,36.532,33.628,34.131
32.847,37.085,36.045,36.488,33.598,34.12
32.968,37.059,36.028,36.445,33.568000000000005,34.104
33.097,37.027,36.008,36.402,33.539,34.082
33.232,36.992,35.986,36.358000000000004,33.51,34.055
33.369,36.953,35.96,36.313,33.482,34.025
33.506,36.91,35.933,36.266999999999996,33.454,33.991
33.64,36.863,35.904,36.219,33.425,33.954
33.768,36.813,35.875,36.17,33.397,33.915
33.888000000000005,36.759,35.848,36.119,33.369,33.874
33.999,36.703,35.824,36.069,33.341,33.832
34.099000000000004,36.644,35.805,36.02,33.314,33.788000000000004
34.185,36.582,35.793,35.974000000000004,33.287,33.742
34.257,36.518,35.789,35.93,33.26,33.696
34.314,36.451,35.795,35.891999999999996,33.235,33.648
34.355,36.381,35.811,35.858000000000004,33.211,33.6
34.38,36.308,35.836999999999996,35.830999999999996,33.188,33.552
34.388000000000005,36.231,35.873000000000005,35.81,33.167,33.503
34.38,36.150999999999996,35.919000000000004,35.797,33.147,33.455999999999996
34.357,36.069,35.972,35.791,33.126999999999995,33.408
34.319,35.983000000000004,36.031,35.791,33.108000000000004,33.361
34.269,35.896,36.095,35.799,33.09,33.314
34.208,35.808,36.161,35.812,33.071999999999996,33.266999999999996
34.138000000000005,35.72,36.227,35.83,33.054,33.222
34.06,35.631,36.291,35.853,33.037,33.177
33.975,35.544000000000004,36.351,35.878,33.019,33.134
33.885,35.457,36.405,35.906,32.999,33.092
33.791,35.371,36.45,35.934,32.979,33.05
33.695,35.288000000000004,36.486999999999995,35.963,32.957,33.009
33.597,35.205999999999996,36.513000000000005,35.989000000000004,32.933,32.969
33.498000000000005,35.126999999999995,36.528,36.014,32.907,32.929
33.398,35.05,36.532,36.035,32.881,32.889
33.298,34.974000000000004,36.525999999999996,36.054,32.854,32.849000000000004
33.199,34.900999999999996,36.508,36.07,32.827,32.809
33.102,34.829,36.48,36.080999999999996,32.798,32.769
33.005,34.76,36.443000000000005,36.088,32.77,32.729
32.909,34.693000000000005,36.398,36.09,32.741,32.689
32.814,34.628,36.346,36.088,32.714,32.649
32.718,34.565,36.29,36.082,32.688,32.609
32.623000000000005,34.505,36.232,36.073,32.666,32.57
32.527,34.446999999999996,36.172,36.06,32.647,32.531
32.43,34.391,36.114000000000004,36.045,32.635,32.493
32.333,34.336,36.058,36.025999999999996,32.631,32.455999999999996
32.235,34.284,36.006,36.005,32.635999999999996,32.42
32.135999999999996,34.233000000000004,35.958,35.982,32.650999999999996,32.384
32.036,34.184,35.913000000000004,35.955999999999996,32.68,32.35
31.936,34.138000000000005,35.872,35.928000000000004,32.721,32.317
31.837,34.093,35.834,35.897,32.778,32.284
31.737,34.05,35.799,35.863,32.851,32.253
31.639,34.007,35.765,35.825,32.94,32.223
31.541,33.964,35.731,35.783,33.047,32.195
31.445,33.921,35.698,35.738,33.171,32.168
31.35,33.879,35.665,35.689,33.312,32.143
31.256,33.836,35.633,35.635,33.469,32.12
31.164,33.794000000000004,35.599000000000004,35.577,33.641,32.099000000000004
31.073,33.75,35.567,35.516,33.826,32.08
30.984,33.707,35.534,35.451,34.023,32.063
30.897,33.663000000000004,35.501999999999995,35.383,34.229,32.048
30.813000000000002,33.619,35.471,35.312,34.441,32.034
30.732,33.575,35.441,35.238,34.657,32.021
30.655,33.53,35.411,35.161,34.873000000000005,32.009
30.584,33.485,35.38,35.082,35.086,31.997
30.521,33.441,35.349000000000004,35.001,35.295,31.985
30.465999999999998,33.397,35.315,34.919000000000004,35.497,31.973000000000003
30.421,33.353,35.281,34.835,35.689,31.96
30.388,33.309,35.244,34.751,35.869,31.947
30.366999999999997,33.265,35.205999999999996,34.666,36.035,31.933000000000003
30.359,33.222,35.166,34.583,36.186,31.918000000000003
30.364,33.178000000000004,35.124,34.5,36.321,31.904
30.381999999999998,33.135,35.08,34.419000000000004,36.438,31.89
30.412,33.093,35.035,34.34,36.538000000000004,31.875999999999998
30.453000000000003,33.052,34.989000000000004,34.263000000000005,36.619,31.864
30.506,33.014,34.942,34.189,36.683,31.851
30.568,32.979,34.895,34.118,36.731,31.84
30.639,32.949,34.847,34.05,36.763000000000005,31.829
30.718000000000004,32.925,34.799,33.985,36.781,31.82
30.804000000000002,32.909,34.751,33.924,36.787,31.813000000000002
30.896,32.904,34.704,33.867,36.782,31.807
30.991999999999997,32.913000000000004,34.659,33.816,36.768,31.803
31.092,32.938,34.615,33.769,36.746,31.8
31.195,32.982,34.571999999999996,33.728,36.719,31.798000000000002
31.296999999999997,33.047,34.531,33.692,36.687,31.796999999999997
31.399,33.137,34.49,33.661,36.652,31.796999999999997
31.499000000000002,33.254,34.45,33.635,36.616,31.798000000000002
31.595,33.399,34.411,33.611999999999995,36.579,31.798000000000002
31.686999999999998,33.573,34.375,33.591,36.541,31.798000000000002
31.773000000000003,33.779,34.34,33.573,36.505,31.796999999999997
31.854,34.014,34.306999999999995,33.556,36.471,31.794
31.929000000000002,34.278,34.275999999999996,33.539,36.439,31.789
31.998,34.569,34.247,33.523,36.409,31.781999999999996
32.062,34.882,34.221,33.507,36.381,31.772
32.121,35.216,34.196999999999996,33.491,36.355,31.759
32.177,35.566,34.174,33.474000000000004,36.33,31.741999999999997
32.23,35.926,34.153,33.458,36.306999999999995,31.721999999999998
32.279,36.292,34.135,33.441,36.285,31.699
32.326,36.659,34.119,33.423,36.264,31.671999999999997
32.37,37.021,34.106,33.406,36.244,31.643
32.412,37.375,34.096,33.388000000000005,36.225,31.611
32.451,37.716,34.089,33.37,36.205,31.576999999999998
32.486999999999995,38.041,34.086999999999996,33.352,36.186,31.541999999999998
32.519,38.345,34.091,33.334,36.167,31.506
32.549,38.628,34.101,33.316,36.147,31.471
32.576,38.887,34.119,33.298,36.126,31.436999999999998
32.6,39.12,34.145,33.279,36.104,31.405
32.622,39.328,34.181,33.259,36.080999999999996,31.377
32.64,39.51,34.226,33.239000000000004,36.056999999999995,31.354
32.654,39.667,34.281,33.217,36.031,31.338
32.666,39.799,34.346,33.196,36.003,31.331999999999997
32.673,39.907,34.42,33.175,35.974000000000004,31.336
32.677,39.991,34.503,33.153,35.944,31.353
32.677,40.054,34.595,33.132,35.914,31.386
32.673,40.096,34.694,33.111,35.883,31.436999999999998
32.664,40.118,34.799,33.088,35.851,31.506
32.650999999999996,40.123000000000005,34.907,33.065,35.82,31.596
32.633,40.111999999999995,35.018,33.041,35.789,31.706999999999997
32.613,40.086999999999996,35.129,33.016,35.759,31.838
32.588,40.048,35.238,32.991,35.731,31.989
32.561,39.998000000000005,35.344,32.966,35.705,32.158
32.531,39.938,35.444,32.941,35.681,32.344
32.498000000000005,39.87,35.536,32.916,35.661,32.544000000000004
32.463,39.796,35.621,32.891,35.644,32.754
32.426,39.717,35.695,32.867,35.63,32.973
32.388000000000005,39.634,35.759,32.842,35.621,33.196
32.349000000000004,39.55,35.813,32.816,35.614000000000004,33.419000000000004
32.309,39.466,35.855,32.789,35.611,33.639
32.269,39.381,35.885,32.76,35.609,33.853
32.228,39.298,35.904,32.73,35.609,34.058
32.188,39.215,35.911,32.699,35.61,34.251
32.147,39.133,35.906,32.667,35.611999999999995,34.43
32.107,39.05,35.89,32.635999999999996,35.613,34.594
32.068000000000005,38.966,35.863,32.606,35.613,34.739000000000004
32.03,38.88,35.827,32.580999999999996,35.611999999999995,34.866
31.993000000000002,38.792,35.783,32.56,35.609,34.974000000000004
31.959,38.7,35.731,32.546,35.604,35.063
31.927,38.606,35.674,32.542,35.595,35.132
31.899,38.507,35.613,32.549,35.583,35.183
31.874000000000002,38.406,35.549,32.57,35.568000000000005,35.216
31.853,38.302,35.482,32.608000000000004,35.55,35.234
31.837,38.195,35.414,32.665,35.529,35.236999999999995
31.823,38.088,35.346,32.743,35.504,35.228
31.811999999999998,37.982,35.279,32.845,35.476,35.208
31.803,37.876999999999995,35.211999999999996,32.971,35.446999999999996,35.18
31.796,37.775999999999996,35.147,33.122,35.415,35.146
31.791999999999998,37.679,35.086,33.297,35.381,35.107
31.789,37.586999999999996,35.029,33.494,35.344,35.066
31.789,37.503,34.977,33.711999999999996,35.306,35.024
31.793000000000003,37.426,34.931999999999995,33.949,35.266999999999996,34.983000000000004
31.801,37.356,34.891999999999996,34.204,35.226,34.944
31.815,37.295,34.859,34.473,35.183,34.907
31.837,37.241,34.830999999999996,34.753,35.14,34.873000000000005
31.866999999999997,37.196,34.808,35.041,35.097,34.842
31.908,37.158,34.791,35.333,35.055,34.814
31.962,37.126999999999995,34.778,35.626999999999995,35.012,34.79
32.029,37.104,34.768,35.918,34.971,34.769
32.111999999999995,37.086999999999996,34.760999999999996,36.203,34.93,34.751
32.21,37.076,34.755,36.478,34.889,34.736
32.325,37.069,34.751,36.74,34.849000000000004,34.724000000000004
32.455,37.066,34.747,36.986,34.809,34.713
32.601,37.067,34.742,37.211999999999996,34.769,34.704
32.760999999999996,37.071,34.736,37.416,34.73,34.695
32.933,37.076,34.729,37.596,34.691,34.686
33.115,37.082,34.72,37.751,34.652,34.676
33.305,37.089,34.71,37.879,34.613,34.665
33.5,37.095,34.698,37.983000000000004,34.574,34.650999999999996
33.698,37.1,34.686,38.061,34.536,34.634
33.895,37.104,34.673,38.115,34.498000000000005,34.614000000000004
34.086999999999996,37.105,34.661,38.147,34.46,34.589
34.273,37.104,34.65,38.158,34.422,34.561
34.449,37.1,34.64,38.150999999999996,34.384,34.529
34.611,37.093,34.631,38.126,34.345,34.493
34.759,37.083,34.624,38.086999999999996,34.305,34.455
34.891,37.069,34.619,38.036,34.265,34.415
35.006,37.051,34.616,37.975,34.224000000000004,34.372
35.104,37.03,34.616,37.906,34.183,34.327
35.184,37.005,34.619,37.833,34.141999999999996,34.281
35.247,36.976,34.625,37.756,34.101,34.236
35.296,36.942,34.635,37.678000000000004,34.06,34.192
35.329,36.904,34.65,37.6,34.02,34.149
35.349000000000004,36.861,34.669000000000004,37.524,33.982,34.11
35.356,36.814,34.691,37.45,33.945,34.073
35.352,36.760999999999996,34.716,37.379,33.909,34.041
35.338,36.705,34.744,37.312,33.874,34.010999999999996
35.316,36.644,34.773,37.248000000000005,33.84,33.985
35.287,36.58,34.803000000000004,37.186,33.806999999999995,33.961999999999996
35.251999999999995,36.510999999999996,34.834,37.126999999999995,33.775,33.941
35.211999999999996,36.438,34.865,37.069,33.743,33.923
35.169000000000004,36.361,34.895,37.013000000000005,33.711999999999996,33.908
35.124,36.28,34.924,36.958,33.681,33.896
35.078,36.196,34.951,36.903,33.652,33.887
35.032,36.109,34.976,36.849000000000004,33.622,33.879
34.988,36.02,34.999,36.795,33.593,33.875
34.944,35.929,35.02,36.741,33.563,33.872
34.903,35.838,35.037,36.687,33.534,33.871
34.865,35.747,35.051,36.632,33.505,33.873000000000005
34.83,35.657,35.061,36.577,33.476,33.876999999999995
34.798,35.568000000000005,35.068000000000005,36.522,33.446999999999996,33.883
34.769,35.482,35.071,36.468,33.418,33.89
34.743,35.397,35.071999999999996,36.416,33.39,33.898
34.719,35.315,35.07,36.365,33.361999999999995,33.906
34.696999999999996,35.236,35.066,36.318000000000005,33.334,33.914
34.676,35.158,35.061,36.273,33.306999999999995,33.922
34.656,35.083,35.053000000000004,36.233000000000004,33.28,33.928000000000004
34.635999999999996,35.01,35.045,36.196999999999996,33.254,33.933
34.615,34.939,35.035,36.166,33.228,33.937
34.594,34.869,35.025,36.14,33.202,33.939
34.574,34.8,35.014,36.121,33.177,33.939
34.553000000000004,34.732,35.003,36.107,33.152,33.938
34.534,34.666,34.992,36.099000000000004,33.128,33.934
34.516999999999996,34.6,34.981,36.098,33.104,33.927
34.501999999999995,34.535,34.97,36.102,33.080999999999996,33.918
34.489000000000004,34.47,34.959,36.111999999999995,33.058,33.907
34.478,34.406,34.948,36.129,33.036,33.891999999999996
34.468,34.342,34.938,36.150999999999996,33.015,33.875
34.459,34.279,34.93,36.179,32.996,33.856
34.45,34.217,34.922,36.211999999999996,32.977,33.834
34.442,34.155,34.916,36.251,32.96,33.81
34.433,34.094,34.91,36.294000000000004,32.943000000000005,33.785
34.424,34.034,34.905,36.341,32.927,33.758
34.415,33.975,34.900999999999996,36.389,32.912,33.73
34.405,33.916,34.896,36.437,32.897,33.701
34.395,33.858000000000004,34.891,36.485,32.882,33.671
34.384,33.8,34.884,36.531,32.867,33.638000000000005
34.372,33.743,34.876999999999995,36.574,32.852,33.604
34.359,33.684,34.867,36.611999999999995,32.835,33.569
34.344,33.624,34.856,36.645,32.817,33.532
34.328,33.563,34.843,36.67,32.798,33.495
34.311,33.5,34.826,36.688,32.777,33.455999999999996
34.295,33.437,34.806999999999995,36.696999999999996,32.755,33.418
34.278,33.372,34.785,36.698,32.73,33.379
34.262,33.308,34.760999999999996,36.69,32.704,33.342
34.247,33.243,34.734,36.675,32.676,33.305
34.235,33.18,34.705,36.652,32.646,33.268
34.226,33.118,34.675,36.622,32.617,33.233000000000004
34.221,33.058,34.644,36.588,32.586999999999996,33.199
34.22,33.001,34.611999999999995,36.549,32.559,33.167
34.223,32.948,34.579,36.507,32.531,33.135
34.232,32.9,34.546,36.463,32.505,33.104
34.246,32.858000000000004,34.513000000000005,36.418,32.481,33.074
34.264,32.82,34.48,36.372,32.46,33.046
34.286,32.789,34.446,36.327,32.443000000000005,33.018
34.312,32.764,34.414,36.281,32.43,32.991
34.341,32.746,34.382,36.236,32.423,32.964
34.371,32.733000000000004,34.351,36.191,32.425,32.939
34.400999999999996,32.728,34.321999999999996,36.147,32.435,32.915
34.429,32.731,34.295,36.104,32.457,32.891999999999996
34.454,32.743,34.269,36.061,32.491,32.87
34.473,32.764,34.246,36.018,32.539,32.85
34.486999999999995,32.796,34.226,35.975,32.602,32.83
34.493,32.839,34.207,35.93,32.681,32.812
34.494,32.897,34.191,35.885999999999996,32.775999999999996,32.796
34.488,32.97,34.177,35.841,32.887,32.78
34.476,33.062,34.164,35.795,33.013000000000005,32.766
34.461,33.175,34.152,35.749,33.154,32.753
34.442,33.311,34.14,35.701,33.308,32.742
34.422,33.472,34.129,35.652,33.474000000000004,32.732
34.402,33.659,34.117,35.602,33.648,32.724000000000004
34.381,33.871,34.106,35.55,33.83,32.717
34.361999999999995,34.111,34.096,35.496,34.015,32.711999999999996
34.344,34.376,34.086,35.44,34.203,32.709
34.329,34.664,34.079,35.383,34.39,32.707
34.315,34.975,34.075,35.324,34.574,32.705999999999996
34.303000000000004,35.304,34.075,35.265,34.751999999999995,32.705999999999996
34.292,35.648,34.079,35.204,34.923,32.705
34.283,36.003,34.091,35.144,35.083,32.704
34.275,36.366,34.11,35.083,35.232,32.703
34.266999999999996,36.73,34.138000000000005,35.024,35.367,32.701
34.259,37.093,34.176,34.966,35.488,32.698
34.251,37.451,34.224000000000004,34.911,35.594,32.695
34.242,37.798,34.281,34.857,35.684,32.692
34.232,38.132,34.349000000000004,34.806,35.758,32.688
34.222,38.45,34.427,34.758,35.817,32.684
34.21,38.747,34.513000000000005,34.711,35.861,32.68
34.198,39.022,34.606,34.668,35.891999999999996,32.677
34.184,39.272,34.705999999999996,34.626,35.91,32.674
34.169000000000004,39.496,34.811,34.586999999999996,35.916,32.671
34.153,39.694,34.918,34.55,35.911,32.668
34.135,39.864000000000004,35.027,34.515,35.896,32.665
34.116,40.007,35.134,34.482,35.874,32.661
34.096,40.125,35.239000000000004,34.451,35.846,32.657
34.073,40.218,35.339,34.421,35.812,32.652
34.05,40.288000000000004,35.433,34.391,35.774,32.646
34.025,40.336,35.519,34.361999999999995,35.735,32.639
34.0,40.365,35.597,34.333,35.694,32.632
33.975,40.376,35.665,34.303000000000004,35.653,32.622
33.95,40.372,35.723,34.274,35.611999999999995,32.611999999999995
33.924,40.355,35.769,34.245,35.571999999999996,32.599000000000004
33.899,40.327,35.804,34.216,35.535,32.585
33.874,40.291,35.827,34.186,35.499,32.569
33.848,40.247,35.836999999999996,34.157,35.466,32.551
33.823,40.198,35.835,34.126999999999995,35.436,32.533
33.798,40.144,35.821,34.098,35.407,32.513000000000005
33.773,40.086,35.796,34.069,35.381,32.493
33.748000000000005,40.025999999999996,35.760999999999996,34.04,35.356,32.472
33.722,39.963,35.718,34.013000000000005,35.333,32.453
33.695,39.898,35.669000000000004,33.986,35.311,32.435
33.667,39.83,35.615,33.96,35.289,32.419000000000004
33.638000000000005,39.76,35.556999999999995,33.935,35.268,32.405
33.607,39.687,35.499,33.912,35.246,32.394
33.575,39.611,35.44,33.889,35.222,32.385999999999996
33.542,39.533,35.383,33.867,35.198,32.381
33.508,39.452,35.33,33.845,35.171,32.38
33.474000000000004,39.369,35.282,33.821999999999996,35.141999999999996,32.38
33.44,39.283,35.239000000000004,33.798,35.111,32.383
33.408,39.193000000000005,35.204,33.774,35.077,32.385999999999996
33.379,39.1,35.175,33.749,35.041,32.39
33.352,39.004,35.153,33.723,35.004,32.393
33.33,38.905,35.135999999999996,33.696,34.967,32.395
33.313,38.801,35.126,33.669000000000004,34.928000000000004,32.394
33.303000000000004,38.692,35.121,33.641,34.89,32.389
33.301,38.579,35.12,33.611999999999995,34.854,32.382
33.308,38.461999999999996,35.122,33.583,34.819,32.37
33.326,38.34,35.126999999999995,33.555,34.787,32.355
33.357,38.215,35.134,33.529,34.759,32.336
33.402,38.086,35.14,33.507,34.735,32.315
33.46,37.955999999999996,35.146,33.49,34.715,32.294000000000004
33.531,37.824,35.15,33.48,34.7,32.273
33.615,37.692,35.152,33.481,34.69,32.255
33.71,37.56,35.152,33.494,34.686,32.242
33.814,37.43,35.149,33.522,34.688,32.236999999999995
33.927,37.303000000000004,35.144,33.567,34.696,32.242
34.047,37.18,35.135999999999996,33.632,34.711,32.260999999999996
34.172,37.062,35.126,33.718,34.731,32.295
34.297,36.95,35.114000000000004,33.827,34.757,32.346
34.422,36.847,35.1,33.958,34.787,32.414
34.543,36.751999999999995,35.085,34.114000000000004,34.821,32.501999999999995
34.658,36.667,35.069,34.292,34.857,32.607
34.765,36.592,35.052,34.492,34.894,32.73
34.863,36.527,35.035,34.711,34.931,32.868
34.951,36.472,35.018,34.948,34.966,33.02
35.029,36.426,35.001999999999995,35.199,34.999,33.184
35.098,36.389,34.988,35.461,35.028,33.355
35.156,36.36,34.974000000000004,35.731,35.054,33.531
35.204,36.336999999999996,34.961,36.006,35.076,33.707
35.244,36.319,34.95,36.282,35.093,33.881
35.275,36.303000000000004,34.938,36.555,35.106,34.049
35.299,36.289,34.927,36.821,35.114000000000004,34.208
35.316,36.275,34.915,37.077,35.119,34.357
35.326,36.26,34.902,37.319,35.12,34.494
35.328,36.243,34.888000000000005,37.546,35.118,34.616
35.325,36.225,34.873000000000005,37.756,35.115,34.723
35.315,36.205,34.856,37.949,35.113,34.813
35.298,36.183,34.836999999999996,38.122,35.113,34.887
35.277,36.158,34.817,38.275,35.118,34.945
35.251,36.132,34.797,38.409,35.126999999999995,34.985
35.222,36.103,34.775999999999996,38.521,35.143,35.01
35.19,36.071999999999996,34.756,38.613,35.166,35.021
35.157,36.038000000000004,34.736999999999995,38.686,35.196,35.016999999999996
35.124,36.003,34.718,38.739000000000004,35.231,35.001999999999995
35.091,35.966,34.7,38.775999999999996,35.271,34.975
35.058,35.927,34.681999999999995,38.798,35.316,34.94
35.025,35.887,34.664,38.806999999999995,35.361999999999995,34.897
34.993,35.846,34.646,38.803000000000004,35.408,34.849000000000004
34.961999999999996,35.804,34.628,38.79,35.452,34.797
34.93,35.760999999999996,34.608000000000004,38.769,35.493,34.742
34.9,35.716,34.586999999999996,38.741,35.528,34.685
34.87,35.671,34.563,38.707,35.556999999999995,34.626999999999995
34.842,35.624,34.538000000000004,38.669000000000004,35.579,34.571
34.814,35.576,34.510999999999996,38.626999999999995,35.593,34.515
34.787,35.527,34.484,38.583,35.598,34.463
34.760999999999996,35.476,34.455999999999996,38.537,35.593,34.415
34.736,35.423,34.428000000000004,38.49,35.579,34.371
34.713,35.367,34.400999999999996,38.444,35.555,34.332
34.69,35.309,34.374,38.399,35.52,34.299
34.669000000000004,35.248000000000005,34.348,38.355,35.477,34.272
34.648,35.183,34.323,38.313,35.424,34.251
34.626999999999995,35.113,34.299,38.275,35.364000000000004,34.235
34.605,35.038000000000004,34.275999999999996,38.24,35.297,34.225
34.583,34.959,34.255,38.208,35.225,34.221
34.559,34.874,34.235,38.18,35.15,34.223
34.533,34.784,34.217,38.155,35.071999999999996,34.229
34.505,34.689,34.2,38.132,34.993,34.239000000000004
34.474000000000004,34.589,34.186,38.11,34.916,34.253
34.442,34.485,34.175,38.088,34.841,34.269
34.409,34.376,34.167,38.066,34.77,34.286
34.375,34.264,34.161,38.042,34.704,34.304
34.341,34.149,34.157,38.015,34.645,34.32
34.306999999999995,34.031,34.156,37.984,34.593,34.334
34.274,33.911,34.156,37.948,34.55,34.344
34.243,33.789,34.159,37.906,34.514,34.35
34.215,33.667,34.162,37.858000000000004,34.486,34.352
34.19,33.544000000000004,34.166,37.805,34.465,34.35
34.169000000000004,33.421,34.171,37.746,34.45,34.343
34.153,33.299,34.177,37.683,34.437,34.333
34.141,33.178000000000004,34.183,37.616,34.427,34.32
34.135999999999996,33.06,34.189,37.549,34.416,34.304
34.135,32.944,34.195,37.481,34.403,34.287
34.141,32.83,34.199,37.415,34.385999999999996,34.271
34.150999999999996,32.72,34.201,37.351,34.366,34.257
34.167,32.614000000000004,34.202,37.292,34.342,34.246
34.187,32.513000000000005,34.2,37.236999999999995,34.313,34.239000000000004
34.211999999999996,32.417,34.196,37.19,34.279,34.235
34.24,32.327,34.188,37.15,34.242,34.236999999999995
34.272,32.242,34.178000000000004,37.119,34.201,34.242
34.306999999999995,32.163000000000004,34.164,37.096,34.158,34.25
34.345,32.09,34.147,37.080999999999996,34.113,34.262
34.383,32.021,34.126999999999995,37.075,34.067,34.275
34.423,31.956999999999997,34.106,37.076,34.019,34.29
34.461999999999996,31.898000000000003,34.082,37.084,33.971,34.305
34.501,31.840999999999998,34.059,37.096,33.924,34.32
34.539,31.788,34.036,37.111999999999995,33.876999999999995,34.335
34.575,31.738000000000003,34.013000000000005,37.131,33.833,34.348
34.609,31.689,33.992,37.15,33.79,34.358000000000004
34.64,31.642,33.971,37.168,33.751,34.365
34.669000000000004,31.596,33.952,37.184,33.714,34.368
34.695,31.55,33.934,37.196,33.68,34.366
34.719,31.505,33.916,37.204,33.65,34.36
34.739000000000004,31.46,33.899,37.205999999999996,33.621,34.35
34.757,31.416,33.882,37.202,33.595,34.336
34.771,31.372,33.864000000000004,37.192,33.569,34.318000000000005
34.782,31.328000000000003,33.846,37.173,33.542,34.297
34.789,31.285999999999998,33.826,37.147,33.513000000000005,34.273
34.793,31.244,33.805,37.113,33.48,34.246
34.793,31.201999999999998,33.782,37.071,33.443000000000005,34.217
34.789,31.160999999999998,33.757,37.022,33.399,34.187
34.782,31.12,33.73,36.967,33.349000000000004,34.155
34.772,31.079,33.701,36.907,33.293,34.124
34.758,31.04,33.67,36.843,33.23,34.092
34.741,31.002,33.638000000000005,36.775,33.162,34.061
34.721,30.965999999999998,33.604,36.705,33.089,34.032
34.698,30.934,33.57,36.633,33.013000000000005,34.004
34.672,30.906999999999996,33.536,36.56,32.937,33.979
34.645,30.886,33.501999999999995,36.485,32.861999999999995,33.955999999999996
34.614000000000004,30.874000000000002,33.469,36.41,32.79,33.936
34.582,30.872,33.438,36.334,32.725,33.918
34.546,30.885,33.409,36.257,32.667,33.904
34.508,30.913,33.381,36.179,32.621,33.893
34.467,30.962,33.356,36.101,32.588,33.884
34.423,31.031,33.333,36.023,32.57,33.88
34.376,31.123,33.312,35.945,32.567,33.879
34.326,31.24,33.294000000000004,35.867,32.583,33.881
34.274,31.381999999999998,33.279,35.79,32.616,33.887
34.218,31.546999999999997,33.266999999999996,35.715,32.667,33.897
34.16,31.736,33.26,35.641,32.736,33.909
34.099000000000004,31.945,33.258,35.569,32.821999999999996,33.923
34.035,32.172,33.263000000000005,35.498000000000005,32.924,33.94
33.968,32.414,33.275,35.43,33.041,33.957
33.898,32.667,33.296,35.361999999999995,33.17,33.974000000000004
33.824,32.928000000000004,33.326,35.295,33.311,33.991
33.746,33.191,33.364000000000004,35.228,33.46,34.007
33.664,33.453,33.411,35.162,33.618,34.02
33.578,33.711,33.467,35.097,33.78,34.03
33.489000000000004,33.96,33.529,35.033,33.946,34.037
33.398,34.199,33.599000000000004,34.971,34.115,34.039
33.305,34.425,33.674,34.91,34.283,34.037
33.211999999999996,34.635,33.754,34.85,34.45,34.031
33.119,34.827,33.838,34.792,34.615,34.022
33.027,35.001999999999995,33.924,34.735,34.775,34.008
32.939,35.157,34.010999999999996,34.681,34.929,33.992
32.856,35.294000000000004,34.099000000000004,34.628,35.077,33.972
32.778,35.411,34.184,34.578,35.216,33.95
32.707,35.510999999999996,34.266,34.53,35.346,33.925
32.644,35.593,34.343,34.483000000000004,35.466,33.898
32.588,35.659,34.414,34.439,35.574,33.869
32.54,35.711,34.477,34.396,35.671,33.839
32.499,35.751,34.532,34.355,35.755,33.809
32.465,35.781,34.578,34.314,35.825,33.778
32.437,35.801,34.616,34.274,35.882,33.747
32.415,35.815,34.644,34.235,35.925,33.716
32.397,35.821999999999996,34.664,34.195,35.954,33.686
32.382,35.825,34.675,34.157,35.969,33.658
32.368,35.824,34.678000000000004,34.118,35.969,33.632
32.355,35.821,34.674,34.08,35.957,33.609
32.342,35.817,34.663000000000004,34.043,35.931,33.589
32.327,35.811,34.648,34.005,35.891999999999996,33.571999999999996
32.311,35.805,34.628,33.968,35.843,33.559
32.294000000000004,35.799,34.604,33.931,35.783,33.55
32.275999999999996,35.793,34.577,33.894,35.714,33.545
32.256,35.787,34.548,33.857,35.639,33.544000000000004
32.236999999999995,35.781,34.516999999999996,33.82,35.558,33.545
32.219,35.775,34.484,33.784,35.473,33.549
32.205999999999996,35.769,34.451,33.749,35.388000000000005,33.555
32.198,35.762,34.417,33.715,35.303000000000004,33.561
32.2,35.754,34.384,33.681,35.221,33.566
32.214,35.744,34.351,33.648,35.143,33.57
32.242,35.73,34.319,33.616,35.069,33.571
32.286,35.713,34.287,33.585,35.001999999999995,33.569
32.348,35.691,34.257,33.553000000000004,34.94,33.563
32.428000000000004,35.663000000000004,34.228,33.521,34.884,33.554
32.525999999999996,35.629,34.201,33.489000000000004,34.834,33.539
32.64,35.586999999999996,34.176,33.455999999999996,34.79,33.521
32.768,35.539,34.155,33.422,34.751999999999995,33.498000000000005
32.909,35.485,34.135999999999996,33.388000000000005,34.719,33.47
33.06,35.423,34.12,33.353,34.69,33.438
33.217,35.355,34.107,33.317,34.665,33.402
33.378,35.282,34.097,33.281,34.641999999999996,33.361999999999995
33.539,35.204,34.09,33.245,34.62,33.318000000000005
33.696999999999996,35.122,34.085,33.21,34.597,33.271
33.849000000000004,35.035,34.083,33.179,34.574,33.222
33.993,34.943000000000005,34.080999999999996,33.152,34.548,33.172
34.128,34.848,34.080999999999996,33.133,34.518,33.121
34.25,34.75,34.080999999999996,33.124,34.486,33.071
34.36,34.65,34.080999999999996,33.128,34.449,33.023
34.455999999999996,34.548,34.082,33.148,34.409,32.977
34.538000000000004,34.446,34.080999999999996,33.186,34.364000000000004,32.934
34.606,34.345,34.079,33.244,34.317,32.895
34.662,34.247,34.074,33.325,34.268,32.861
34.705999999999996,34.150999999999996,34.067,33.429,34.218,32.830999999999996
34.74,34.06,34.058,33.558,34.166,32.806999999999995
34.764,33.973,34.045,33.711,34.115,32.788000000000004
34.781,33.893,34.029,33.889,34.064,32.775
34.792,33.818000000000005,34.009,34.09,34.013000000000005,32.768
34.797,33.75,33.986999999999995,34.311,33.963,32.768
34.798,33.689,33.961999999999996,34.551,33.914,32.774
34.796,33.635,33.935,34.806999999999995,33.865,32.787
34.792,33.586999999999996,33.907,35.075,33.818000000000005,32.808
34.785,33.545,33.878,35.351,33.771,32.836999999999996
34.777,33.509,33.849000000000004,35.632,33.726,32.875
34.766999999999996,33.48,33.821,35.913000000000004,33.683,32.923
34.755,33.454,33.793,36.191,33.641,32.981
34.742,33.433,33.766999999999996,36.463,33.601,33.051
34.727,33.415,33.741,36.726,33.563,33.133
34.71,33.398,33.717,36.977,33.527,33.227
34.692,33.384,33.694,37.211999999999996,33.493,33.332
34.673,33.37,33.672,37.431,33.463,33.449
34.654,33.356,33.65,37.63,33.435,33.576
34.634,33.341,33.629,37.809,33.411,33.713
34.614000000000004,33.325,33.608000000000004,37.967,33.391,33.857
34.595,33.308,33.586999999999996,38.102,33.375,34.008
34.576,33.29,33.567,38.215,33.363,34.163000000000004
34.556999999999995,33.271,33.549,38.305,33.356,34.32
34.538000000000004,33.25,33.53,38.374,33.353,34.476
34.519,33.227,33.513000000000005,38.423,33.355,34.63
34.501,33.202,33.496,38.453,33.36,34.779
34.482,33.177,33.481,38.467,33.369,34.921
34.465,33.150999999999996,33.465,38.466,33.38,35.053000000000004
34.448,33.124,33.45,38.451,33.391999999999996,35.173
34.431999999999995,33.096,33.434,38.426,33.405,35.281
34.417,33.069,33.416,38.391,33.418,35.375
34.402,33.041,33.397,38.348,33.431,35.454
34.387,33.013000000000005,33.376,38.298,33.443000000000005,35.518
34.372,32.986,33.353,38.243,33.453,35.566
34.358000000000004,32.959,33.33,38.183,33.461,35.599000000000004
34.342,32.931,33.305,38.121,33.469,35.618
34.326,32.905,33.28,38.056,33.474000000000004,35.623000000000005
34.308,32.878,33.256,37.99,33.477,35.616
34.29,32.852,33.231,37.924,33.477,35.598
34.271,32.824,33.208,37.857,33.475,35.57
34.251999999999995,32.796,33.187,37.791,33.47,35.535
34.234,32.766999999999996,33.169000000000004,37.726,33.461,35.494
34.216,32.736,33.154,37.662,33.451,35.448
34.2,32.703,33.141,37.599000000000004,33.438,35.398
34.186,32.669000000000004,33.132,37.537,33.423,35.347
34.174,32.632,33.126,37.475,33.407,35.295
34.164,32.593,33.122,37.414,33.391,35.243
34.157,32.551,33.12,37.353,33.374,35.192
34.154,32.507,33.12,37.293,33.357,35.144
34.154,32.461,33.122,37.233000000000004,33.34,35.099000000000004
34.158,32.413000000000004,33.124,37.172,33.324,35.059
34.166,32.361999999999995,33.126999999999995,37.111999999999995,33.308,35.024
34.176,32.311,33.131,37.051,33.292,34.994
34.189,32.259,33.134,36.99,33.277,34.97
34.203,32.208,33.137,36.929,33.260999999999996,34.952
34.218,32.159,33.14,36.868,33.244,34.939
34.233000000000004,32.111,33.141999999999996,36.808,33.227,34.931999999999995
34.248000000000005,32.065,33.144,36.748000000000005,33.209,34.93
34.260999999999996,32.021,33.147,36.69,33.19,34.931
34.273,31.98,33.149,36.633,33.17,34.936
34.283,31.94,33.150999999999996,36.579,33.15,34.942
34.291,31.901999999999997,33.153,36.528,33.128,34.95
34.296,31.864,33.156,36.481,33.105,34.958
34.299,31.828000000000003,33.159,36.438,33.080999999999996,34.965
34.301,31.791999999999998,33.163000000000004,36.399,33.055,34.971
34.3,31.758000000000003,33.167,36.366,33.029,34.974000000000004
34.299,31.725,33.172,36.338,33.003,34.975
34.298,31.691999999999997,33.176,36.316,32.976,34.973
34.297,31.658,33.181,36.301,32.95,34.968
34.296,31.624000000000002,33.185,36.291,32.925,34.961
34.297,31.589000000000002,33.19,36.288000000000004,32.900999999999996,34.951
34.299,31.553,33.195,36.289,32.876999999999995,34.939
34.304,31.515,33.201,36.295,32.855,34.927
34.31,31.476,33.209,36.303000000000004,32.834,34.913000000000004
34.319,31.434,33.217,36.314,32.814,34.9
34.329,31.391,33.226,36.326,32.795,34.888000000000005
34.341,31.346,33.236,36.34,32.777,34.876
34.352,31.3,33.247,36.354,32.76,34.865
34.361999999999995,31.253,33.257,36.367,32.743,34.855
34.371,31.204,33.269,36.379,32.726,34.846
34.376999999999995,31.156,33.28,36.388000000000005,32.709,34.838
34.379,31.107,33.292,36.394,32.691,34.830999999999996
34.376999999999995,31.058000000000003,33.304,36.396,32.673,34.826
34.371,31.01,33.316,36.393,32.655,34.821
34.36,30.963,33.329,36.385999999999996,32.635,34.818000000000005
34.345,30.916999999999998,33.342,36.375,32.615,34.816
34.327,30.875,33.356,36.359,32.593,34.815
34.306999999999995,30.835,33.371,36.34,32.569,34.815
34.284,30.799,33.387,36.316,32.543,34.816
34.26,30.766,33.404,36.288000000000004,32.515,34.819
34.235,30.737,33.422,36.256,32.484,34.823
34.209,30.713,33.441,36.219,32.45,34.827
34.184,30.694000000000003,33.461,36.179,32.414,34.833
34.161,30.682,33.482,36.134,32.375,34.839
34.139,30.679000000000002,33.504,36.086,32.336,34.846
34.12,30.686,33.527,36.033,32.295,34.852
34.103,30.704,33.549,35.977,32.254,34.858000000000004
34.09,30.736,33.571,35.917,32.213,34.863
34.08,30.783,33.593,35.853,32.174,34.868
34.073,30.846,33.613,35.787,32.135999999999996,34.871
34.069,30.927,33.631,35.719,32.099000000000004,34.875
34.067,31.028000000000002,33.646,35.648,32.065,34.876999999999995
34.069,31.147,33.657,35.576,32.033,34.879
34.073,31.287,33.665,35.503,32.001999999999995,34.88
34.079,31.445999999999998,33.67,35.43,31.974,34.88
34.086999999999996,31.622,33.67,35.357,31.948,34.88
34.097,31.815,33.668,35.283,31.924,34.876999999999995
34.107,32.022,33.664,35.21,31.903000000000002,34.873000000000005
34.118,32.241,33.659,35.135999999999996,31.883000000000003,34.866
34.129,32.47,33.656,35.062,31.865,34.857
34.139,32.705999999999996,33.656,34.989000000000004,31.849,34.844
34.148,32.944,33.663000000000004,34.917,31.834,34.827
34.155,33.183,33.677,34.847,31.820999999999998,34.808
34.16,33.419000000000004,33.702,34.778,31.81,34.784
34.162,33.65,33.736999999999995,34.711999999999996,31.8,34.756
34.162,33.871,33.785,34.647,31.791999999999998,34.725
34.159,34.082,33.845,34.586,31.785,34.689
34.154,34.28,33.918,34.525999999999996,31.78,34.65
34.146,34.461999999999996,34.004,34.469,31.778000000000002,34.608000000000004
34.137,34.626999999999995,34.101,34.413000000000004,31.781,34.565
34.125,34.775,34.21,34.359,31.789,34.519
34.111,34.902,34.327,34.308,31.804000000000002,34.473
34.095,35.01,34.451,34.259,31.828000000000003,34.426
34.077,35.098,34.58,34.213,31.863000000000003,34.379
34.056999999999995,35.166,34.711999999999996,34.17,31.91,34.332
34.035,35.215,34.843,34.13,31.969,34.287
34.010999999999996,35.245,34.972,34.093,32.042,34.243
33.986,35.259,35.095,34.059,32.126999999999995,34.2
33.961,35.258,35.21,34.03,32.226,34.159
33.935,35.242,35.315,34.004,32.336999999999996,34.12
33.911,35.214,35.409,33.982,32.461,34.082
33.888000000000005,35.176,35.49,33.964,32.596,34.047
33.868,35.129,35.556999999999995,33.949,32.741,34.013000000000005
33.852,35.075,35.61,33.937,32.896,33.982
33.841,35.016,35.649,33.928000000000004,33.059,33.953
33.836999999999996,34.954,35.673,33.92,33.228,33.927
33.842,34.89,35.683,33.913000000000004,33.400999999999996,33.903
33.859,34.826,35.679,33.907,33.576,33.881
33.891,34.762,35.664,33.9,33.751,33.861
33.938,34.698,35.638000000000005,33.891,33.922,33.843
34.003,34.635999999999996,35.604,33.88,34.089,33.827
34.086,34.574,35.562,33.866,34.248000000000005,33.813
34.188,34.514,35.516,33.847,34.398,33.802
34.308,34.454,35.465,33.824,34.537,33.792
34.444,34.395,35.413000000000004,33.796,34.666,33.783
34.594,34.336,35.36,33.763000000000005,34.783,33.775
34.757,34.275,35.306,33.726,34.889,33.769
34.93,34.213,35.254,33.684,34.983000000000004,33.762
35.11,34.149,35.205,33.639,35.065,33.756
35.293,34.082,35.157,33.59,35.137,33.75
35.476,34.012,35.114000000000004,33.538000000000004,35.199,33.744
35.657,33.941,35.074,33.483000000000004,35.251,33.739000000000004
35.830999999999996,33.867,35.039,33.428000000000004,35.295,33.733000000000004
35.998000000000005,33.791,35.007,33.372,35.330999999999996,33.727
36.154,33.714,34.981,33.316,35.36,33.721
36.298,33.635,34.958,33.262,35.384,33.715
36.428000000000004,33.556,34.94,33.21,35.403,33.709
36.545,33.475,34.924,33.162,35.418,33.702
36.648,33.396,34.91,33.118,35.431,33.694
36.736999999999995,33.318000000000005,34.897,33.08,35.442,33.684
36.812,33.242,34.884,33.051,35.451,33.674
36.873000000000005,33.169000000000004,34.871,33.032,35.459,33.662
36.921,33.101,34.856,33.025,35.467,33.648
36.955999999999996,33.037,34.841,33.032,35.473,33.633
36.98,32.979,34.825,33.056999999999995,35.48,33.617
36.994,32.926,34.809,33.1,35.486,33.6
36.997,32.88,34.793,33.165,35.491,33.582
36.992,32.84,34.777,33.251999999999995,35.496,33.563
36.979,32.806,34.760999999999996,33.361999999999995,35.501,33.542
36.958,32.779,34.747,33.497,35.506,33.52
36.929,32.758,34.736,33.656,35.512,33.497
36.894,32.743,34.727,33.839,35.516999999999996,33.471
36.852,32.733000000000004,34.719,34.043,35.522,33.444
36.806,32.728,34.711,34.266,35.527,33.416
36.754,32.727,34.7,34.506,35.531,33.388000000000005
36.699,32.728,34.685,34.759,35.535,33.36
36.641,32.732,34.664,35.022,35.539,33.333
36.580999999999996,32.739000000000004,34.635,35.29,35.542,33.31
36.519,32.747,34.6,35.56,35.545,33.29
36.457,32.756,34.559,35.828,35.547,33.275
36.395,32.766,34.512,36.09,35.55,33.268
36.334,32.775,34.461,36.343,35.552,33.269
36.274,32.783,34.408,36.583,35.554,33.281
36.217,32.79,34.354,36.808,35.556,33.305
36.161,32.793,34.301,37.016,35.558,33.342
36.107,32.792,34.251,37.203,35.559,33.393
36.055,32.786,34.204,37.369,35.56,33.457
36.004,32.775999999999996,34.162,37.513000000000005,35.561,33.536
35.954,32.76,34.126,37.635,35.563,33.628
35.905,32.738,34.095,37.734,35.564,33.733000000000004
35.856,32.71,34.071,37.812,35.567,33.851
35.808,32.675,34.052,37.87,35.569,33.978
35.76,32.633,34.038000000000004,37.908,35.571999999999996,34.114000000000004
35.713,32.585,34.031,37.929,35.576,34.256
35.667,32.532,34.028,37.934,35.579,34.400999999999996
35.62,32.473,34.031,37.925,35.583,34.547
35.575,32.409,34.038000000000004,37.903,35.588,34.692
35.529,32.34,34.048,37.871,35.595,34.833
35.483000000000004,32.266999999999996,34.062,37.83,35.603,34.969
35.438,32.189,34.077,37.781,35.613,35.096
35.391999999999996,32.107,34.095,37.725,35.626,35.211999999999996
35.345,32.022,34.113,37.663000000000004,35.641999999999996,35.317
35.296,31.936,34.132,37.597,35.661,35.409
35.246,31.848000000000003,34.149,37.527,35.683,35.486999999999995
35.195,31.761,34.165,37.455999999999996,35.705999999999996,35.551
35.141999999999996,31.675,34.179,37.384,35.731,35.6
35.088,31.594,34.19,37.313,35.758,35.634
35.034,31.517,34.199,37.243,35.785,35.654
34.98,31.445,34.205,37.175,35.812,35.66
34.927,31.381,34.209,37.109,35.839,35.653
34.875,31.323,34.211,37.046,35.867,35.633
34.824,31.272,34.211,36.986,35.893,35.601
34.775999999999996,31.228,34.21,36.928000000000004,35.919000000000004,35.56
34.73,31.191,34.207,36.871,35.945,35.509
34.686,31.162,34.203,36.817,35.969,35.451
34.646,31.138,34.198,36.763000000000005,35.992,35.387
34.61,31.121,34.191,36.71,36.014,35.32
34.578,31.11,34.181999999999995,36.656,36.033,35.25
34.551,31.103,34.171,36.602,36.051,35.181
34.528,31.101,34.157,36.547,36.067,35.113
34.51,31.103,34.138000000000005,36.491,36.080999999999996,35.049
34.497,31.11,34.116,36.435,36.092,34.989000000000004
34.488,31.121,34.089,36.38,36.101,34.934
34.484,31.134,34.059,36.325,36.108000000000004,34.885
34.484,31.15,34.024,36.272,36.111999999999995,34.842
34.488,31.166999999999998,33.986,36.22,36.114000000000004,34.805
34.495,31.185,33.945,36.172,36.113,34.773
34.506,31.201999999999998,33.902,36.126999999999995,36.109,34.747
34.519,31.22,33.859,36.086,36.103,34.726
34.534,31.236,33.815,36.049,36.094,34.71
34.55,31.250999999999998,33.773,36.016999999999996,36.082,34.698
34.566,31.264,33.732,35.989000000000004,36.067,34.689
34.580999999999996,31.275,33.693000000000005,35.966,36.05,34.681999999999995
34.594,31.281999999999996,33.658,35.949,36.031,34.676
34.604,31.285,33.626999999999995,35.936,36.01,34.672
34.611999999999995,31.285,33.601,35.928000000000004,35.988,34.667
34.617,31.28,33.579,35.925,35.963,34.662
34.62,31.271,33.562,35.925,35.937,34.655
34.62,31.255,33.55,35.928000000000004,35.909,34.647
34.618,31.234,33.542,35.933,35.88,34.637
34.615,31.208000000000002,33.538000000000004,35.941,35.849000000000004,34.624
34.609,31.177,33.537,35.95,35.818000000000005,34.609
34.602,31.142,33.538000000000004,35.959,35.786,34.592
34.594,31.103,33.543,35.968,35.755,34.574
34.583,31.063000000000002,33.549,35.976,35.725,34.554
34.571,31.022,33.558,35.98,35.696,34.532
34.556999999999995,30.980999999999998,33.568000000000005,35.982,35.669000000000004,34.51
34.541,30.943,33.58,35.981,35.644,34.489000000000004
34.523,30.908,33.593,35.975,35.62,34.47
34.501999999999995,30.878,33.608000000000004,35.966,35.6,34.453
34.48,30.853,33.623000000000005,35.953,35.582,34.439
34.454,30.834,33.64,35.935,35.566,34.429
34.427,30.820999999999998,33.656,35.914,35.554,34.423
34.397,30.814,33.672,35.888000000000005,35.545,34.422
34.365,30.814,33.687,35.859,35.538000000000004,34.425
34.330999999999996,30.819000000000003,33.701,35.827,35.534,34.433
34.297,30.831,33.711999999999996,35.793,35.531,34.445
34.262,30.846999999999998,33.721,35.756,35.53,34.46
34.228,30.869,33.728,35.719,35.528,34.478
34.194,30.895,33.732,35.68,35.525999999999996,34.499
34.163000000000004,30.925,33.734,35.641999999999996,35.524,34.523
34.135,30.96,33.733000000000004,35.604,35.521,34.55
34.111,30.999000000000002,33.73,35.565,35.516999999999996,34.579
34.09,31.043000000000003,33.724000000000004,35.525999999999996,35.512,34.611
34.073,31.092,33.716,35.486,35.504,34.645
34.059,31.146,33.705999999999996,35.446,35.495,34.681999999999995
34.048,31.206999999999997,33.693000000000005,35.406,35.483000000000004,34.721
34.039,31.275,33.679,35.364000000000004,35.469,34.760999999999996
34.031,31.351999999999997,33.662,35.32,35.452,34.802
34.025,31.439,33.644,35.275999999999996,35.431,34.842
34.019,31.535999999999998,33.624,35.229,35.407,34.878
34.010999999999996,31.645,33.603,35.181,35.381,34.912
34.003,31.765,33.58,35.131,35.352,34.94
33.992,31.897,33.555,35.078,35.321,34.964
33.98,32.038000000000004,33.528,35.024,35.29,34.982
33.964,32.189,33.5,34.967,35.259,34.994
33.946,32.347,33.471,34.909,35.228,35.001
33.924,32.51,33.441,34.849000000000004,35.2,35.003
33.899,32.678000000000004,33.41,34.787,35.173,34.999
33.87,32.848,33.379,34.724000000000004,35.149,34.991
33.836999999999996,33.019,33.349000000000004,34.66,35.126999999999995,34.977
33.8,33.189,33.318000000000005,34.594,35.108000000000004,34.96
33.76,33.357,33.289,34.527,35.093,34.938
33.718,33.519,33.260999999999996,34.459,35.079,34.913000000000004
33.675,33.675,33.234,34.389,35.067,34.885999999999996
33.631,33.821999999999996,33.209,34.317,35.054,34.856
33.586999999999996,33.958,33.185,34.244,35.04,34.826
33.545,34.08,33.164,34.17,35.02,34.796
33.505,34.188,33.145,34.095,34.994,34.766999999999996
33.468,34.28,33.13,34.02,34.958,34.739000000000004
33.435,34.356,33.119,33.945,34.91,34.713
33.408,34.415,33.115,33.872,34.848,34.688
33.385,34.457,33.117,33.801,34.77,34.665
33.369,34.483000000000004,33.126999999999995,33.732,34.674,34.643
33.36,34.494,33.145,33.666,34.559,34.622
33.358000000000004,34.491,33.173,33.603,34.423,34.601
33.364000000000004,34.477,33.21,33.543,34.265,34.579
33.38,34.451,33.257,33.486,34.086,34.556999999999995
33.405,34.417,33.315,33.431999999999995,33.885,34.533
33.443000000000005,34.376,33.381,33.38,33.663000000000004,34.508
33.493,34.33,33.455,33.329,33.421,34.479
33.556999999999995,34.28,33.537,33.279,33.162,34.448
33.635999999999996,34.228,33.624,33.229,32.887,34.415
33.729,34.175,33.716,33.178000000000004,32.599000000000004,34.379
33.836,34.123000000000005,33.81,33.126,32.302,34.342
33.957,34.071,33.907,33.073,31.999000000000002,34.303000000000004
34.09,34.022,34.003,33.019,31.695,34.263000000000005
34.232,33.975,34.096,32.964,31.392,34.222
34.383,33.931,34.185,32.908,31.095,34.181999999999995
34.54,33.889,34.266999999999996,32.85,30.807,34.143
34.7,33.849000000000004,34.342,32.791,30.533,34.106
34.861,33.812,34.409,32.731,30.274,34.071
35.019,33.775999999999996,34.465,32.669000000000004,30.034000000000002,34.04
35.174,33.741,34.512,32.606,29.813000000000002,34.012
35.321999999999996,33.707,34.548,32.542,29.614,33.988
35.461999999999996,33.674,34.574,32.478,29.438000000000002,33.968
35.591,33.64,34.59,32.415,29.285,33.952
35.708,33.605,34.597,32.353,29.154,33.938
35.811,33.569,34.595,32.295,29.045,33.928000000000004
35.9,33.532,34.585,32.241,28.956999999999997,33.92
35.974000000000004,33.493,34.57,32.192,28.889,33.913000000000004
36.033,33.453,34.549,32.150999999999996,28.84,33.908
36.077,33.41,34.525,32.12,28.807,33.903
36.108000000000004,33.365,34.497,32.099000000000004,28.789,33.897
36.125,33.318000000000005,34.467,32.093,28.785,33.89
36.13,33.27,34.436,32.102,28.79,33.882
36.125,33.222,34.405,32.13,28.805,33.871
36.109,33.173,34.374,32.178000000000004,28.825,33.858000000000004
36.085,33.124,34.344,32.248000000000005,28.851,33.842
36.052,33.075,34.315,32.341,28.881,33.824
36.014,33.027,34.288000000000004,32.458,28.914,33.803000000000004
35.97,32.981,34.264,32.598,28.95,33.78
35.922,32.937,34.242,32.76,28.987,33.754
35.872,32.895,34.224000000000004,32.944,29.026999999999997,33.728
35.821,32.856,34.208,33.147,29.07,33.7
35.769,32.819,34.196,33.367,29.116999999999997,33.673
35.718,32.785,34.186,33.6,29.169,33.647
35.667,32.751999999999995,34.179,33.844,29.226999999999997,33.623000000000005
35.617,32.721,34.172,34.094,29.294,33.602
35.568000000000005,32.693000000000005,34.167,34.347,29.369,33.585
35.519,32.667,34.162,34.599000000000004,29.456,33.574
35.471,32.644,34.157,34.845,29.554000000000002,33.57
35.423,32.624,34.150999999999996,35.083,29.666999999999998,33.577
35.376999999999995,32.607,34.144,35.309,29.796,33.594
35.333,32.593,34.135999999999996,35.521,29.943,33.626
35.29,32.582,34.126,35.717,30.11,33.672
35.249,32.573,34.113,35.895,30.299,33.736
35.211,32.567,34.098,36.054,30.508000000000003,33.818000000000005
35.176,32.562,34.080999999999996,36.195,30.739,33.919000000000004
35.141,32.559,34.062,36.315,30.988000000000003,34.038000000000004
35.108000000000004,32.556,34.04,36.416,31.254,34.174
35.076,32.554,34.016,36.498000000000005,31.534000000000002,34.326
35.043,32.552,33.991,36.561,31.826999999999998,34.492
35.01,32.55,33.964,36.606,32.13,34.669000000000004
34.976,32.546,33.936,36.635,32.44,34.855
34.942,32.54,33.908,36.648,32.754,35.045
34.907,32.532,33.879,36.647,33.071,35.236
34.871,32.523,33.851,36.633,33.389,35.426
34.835,32.512,33.824,36.609,33.705,35.61
34.799,32.498000000000005,33.798,36.575,34.019,35.785
34.765,32.483000000000004,33.775,36.535,34.328,35.949
34.732,32.467,33.754,36.492,34.633,36.1
34.701,32.449,33.736999999999995,36.446,34.931,36.235
34.673,32.429,33.724000000000004,36.399,35.222,36.353
34.647,32.408,33.716,36.351,35.506,36.455
34.625,32.385999999999996,33.711999999999996,36.302,35.781,36.539
34.606,32.361,33.711999999999996,36.254,36.048,36.606
34.592,32.334,33.716,36.205999999999996,36.308,36.656
34.582,32.306,33.722,36.16,36.56,36.69
34.578,32.277,33.73,36.115,36.806,36.711
34.579,32.246,33.739000000000004,36.071,37.046,36.719
34.586,32.214,33.749,36.03,37.28,36.717
34.598,32.18,33.758,35.99,37.51,36.705
34.616,32.146,33.766999999999996,35.952,37.733000000000004,36.686
34.64,32.111,33.775,35.915,37.952,36.661
34.667,32.076,33.783,35.879,38.165,36.63
34.698,32.04,33.79,35.843,38.372,36.594
34.73,32.006,33.796,35.806999999999995,38.573,36.556
34.764,31.974,33.801,35.77,38.768,36.515
34.797,31.943,33.806,35.732,38.957,36.473
34.83,31.914,33.809,35.692,39.14,36.431
34.861999999999995,31.886999999999997,33.812,35.650999999999996,39.316,36.388000000000005
34.891999999999996,31.862,33.813,35.607,39.486999999999995,36.345
34.921,31.839000000000002,33.812,35.561,39.650999999999996,36.304
34.948,31.818,33.81,35.512,39.809,36.264
34.972,31.8,33.806999999999995,35.461,39.961999999999996,36.225
34.994,31.784000000000002,33.802,35.407,40.107,36.188
35.012,31.77,33.797,35.35,40.247,36.153
35.027,31.756999999999998,33.792,35.292,40.379,36.119
35.038000000000004,31.746,33.786,35.234,40.505,36.086
35.044000000000004,31.735,33.779,35.175,40.623000000000005,36.055
35.047,31.724,33.771,35.119,40.733000000000004,36.025
35.046,31.712,33.763000000000005,35.065,40.836999999999996,35.998000000000005
35.043,31.7,33.755,35.014,40.931999999999995,35.972
35.036,31.686999999999998,33.745,34.966,41.02,35.946999999999996
35.028,31.673000000000002,33.736,34.921,41.101000000000006,35.923
35.018,31.658,33.727,34.879,41.174,35.899
35.008,31.641,33.718,34.84,41.24,35.874
34.998000000000005,31.622,33.709,34.805,41.299,35.849000000000004
34.988,31.601999999999997,33.702,34.775,41.352,35.823
34.979,31.581,33.695,34.749,41.4,35.795
34.97,31.559,33.69,34.728,41.442,35.765
34.961999999999996,31.537,33.686,34.713,41.481,35.733000000000004
34.955,31.515,33.681999999999995,34.702,41.515,35.698
34.948,31.491999999999997,33.679,34.696999999999996,41.545,35.661
34.941,31.47,33.675,34.696999999999996,41.573,35.623000000000005
34.935,31.448,33.672,34.702,41.597,35.583
34.928000000000004,31.425,33.667,34.711,41.618,35.543
34.921,31.403000000000002,33.663000000000004,34.724000000000004,41.637,35.503
34.914,31.38,33.659,34.741,41.653999999999996,35.463
34.907,31.358,33.656,34.76,41.668,35.425
34.899,31.335,33.653,34.78,41.678999999999995,35.389
34.891,31.313000000000002,33.653,34.8,41.687,35.356
34.883,31.291,33.654,34.819,41.692,35.325
34.875,31.269000000000002,33.656,34.836999999999996,41.692,35.299
34.867,31.248,33.66,34.851,41.688,35.277
34.858000000000004,31.228,33.664,34.86,41.677,35.26
34.849000000000004,31.209,33.67,34.865,41.659,35.248000000000005
34.839,31.191999999999997,33.676,34.864000000000004,41.63399999999999,35.241
34.827,31.176,33.681999999999995,34.857,41.601000000000006,35.239000000000004
34.813,31.160999999999998,33.689,34.843,41.56,35.242
34.795,31.147,33.695,34.823,41.51,35.25
34.775,31.134,33.702,34.795,41.453,35.262
34.751,31.122,33.707,34.760999999999996,41.388000000000005,35.278
34.724000000000004,31.112,33.711999999999996,34.72,41.317,35.298
34.694,31.103,33.716,34.673,41.24,35.321
34.662,31.095,33.718,34.62,41.156000000000006,35.347
34.626999999999995,31.087,33.719,34.563,41.067,35.376
34.59,31.08,33.72,34.5,40.972,35.406
34.55,31.072,33.72,34.434,40.873000000000005,35.438
34.508,31.065,33.719,34.364000000000004,40.77,35.471
34.464,31.058000000000003,33.718,34.29,40.666,35.505
34.417,31.051,33.718,34.213,40.561,35.538000000000004
34.369,31.044,33.719,34.134,40.455,35.57
34.32,31.035999999999998,33.721,34.054,40.349000000000004,35.601
34.271,31.028000000000002,33.724000000000004,33.973,40.243,35.63
34.221,31.019000000000002,33.727,33.891999999999996,40.135999999999996,35.655
34.171,31.01,33.732,33.812,40.031,35.678000000000004
34.122,31.002,33.736,33.734,39.928000000000004,35.696
34.073,30.995,33.74,33.658,39.826,35.71
34.025,30.991,33.743,33.586,39.726,35.719
33.979,30.99,33.745,33.516,39.626999999999995,35.723
33.934,30.994,33.746,33.451,39.53,35.723
33.89,31.003,33.746,33.389,39.434,35.719
33.847,31.02,33.744,33.33,39.339,35.711999999999996
33.806,31.046,33.74,33.275,39.245,35.701
33.766999999999996,31.083000000000002,33.734,33.222,39.152,35.688
33.731,31.131,33.726,33.173,39.06,35.671
33.696999999999996,31.191,33.716,33.125,38.971,35.654
33.665,31.264,33.705999999999996,33.079,38.883,35.634
33.637,31.351,33.694,33.035,38.797,35.614000000000004
33.611999999999995,31.45,33.681999999999995,32.992,38.713,35.593
33.592,31.561,33.67,32.949,38.63,35.571999999999996
33.576,31.684,33.657,32.906,38.549,35.551
33.566,31.816,33.645,32.861999999999995,38.468,35.529
33.563,31.956999999999997,33.633,32.818000000000005,38.388000000000005,35.508
33.568000000000005,32.106,33.622,32.775,38.309,35.486999999999995
33.585,32.26,33.611,32.733000000000004,38.23,35.465
33.613,32.417,33.6,32.693000000000005,38.150999999999996,35.443000000000005
33.657,32.576,33.59,32.655,38.073,35.421
33.716,32.735,33.58,32.62,37.995,35.398
33.793,32.891,33.571999999999996,32.589,37.917,35.375
33.889,33.042,33.563,32.561,37.841,35.351
34.003,33.186,33.556,32.538000000000004,37.764,35.325
34.134,33.321,33.551,32.519,37.688,35.298
34.283,33.445,33.546,32.504,37.611999999999995,35.268
34.448,33.558,33.544000000000004,32.492,37.537,35.236999999999995
34.626,33.657,33.545,32.484,37.461,35.204
34.815,33.744,33.549,32.479,37.385,35.17
35.010999999999996,33.817,33.558,32.475,37.309,35.134
35.211999999999996,33.876,33.573,32.472,37.232,35.099000000000004
35.415,33.922,33.596,32.47,37.155,35.063
35.616,33.955999999999996,33.626,32.467,37.077,35.027
35.812,33.979,33.665,32.461999999999996,36.998000000000005,34.992
36.001,33.992,33.714,32.455,36.918,34.957
36.181,33.996,33.773,32.446,36.836999999999996,34.923
36.35,33.993,33.842,32.433,36.755,34.89
36.506,33.984,33.92,32.416,36.672,34.858000000000004
36.65,33.971,34.006,32.397,36.589,34.826
36.78,33.955,34.099000000000004,32.376999999999995,36.507,34.796
36.896,33.936,34.196,32.357,36.424,34.766
36.998000000000005,33.917,34.296,32.34,36.343,34.738
37.086,33.897,34.398,32.327,36.262,34.709
37.161,33.878,34.499,32.321999999999996,36.184,34.681
37.222,33.861,34.596,32.327,36.108000000000004,34.654
37.27,33.844,34.689,32.344,36.035,34.626
37.306,33.83,34.775999999999996,32.374,35.968,34.597
37.33,33.815,34.856,32.421,35.908,34.569
37.343,33.801,34.926,32.485,35.855,34.54
37.346,33.787,34.986,32.568000000000005,35.812,34.510999999999996
37.339,33.773,35.035,32.67,35.779,34.481
37.324,33.758,35.071999999999996,32.793,35.758,34.452
37.302,33.744,35.096,32.936,35.751,34.423
37.274,33.73,35.108000000000004,33.097,35.759,34.395
37.242,33.717,35.107,33.277,35.782,34.369
37.205,33.704,35.094,33.472,35.82,34.345
37.166,33.691,35.071,33.68,35.873000000000005,34.324
37.124,33.677,35.039,33.899,35.94,34.306999999999995
37.08,33.662,35.0,34.125,36.02,34.296
37.035,33.645,34.955,34.356,36.111999999999995,34.291
36.989000000000004,33.626,34.905,34.588,36.216,34.295
36.942,33.603,34.854,34.818000000000005,36.328,34.31
36.895,33.578,34.801,35.044000000000004,36.446999999999996,34.336999999999996
36.847,33.55,34.748000000000005,35.260999999999996,36.571999999999996,34.379
36.8,33.52,34.696999999999996,35.468,36.7,34.436
36.751999999999995,33.486999999999995,34.648,35.662,36.828,34.509
36.705,33.452,34.602,35.841,36.954,34.599000000000004
36.659,33.415,34.559,36.004,37.077,34.705999999999996
36.614000000000004,33.376,34.519,36.149,37.194,34.829
36.57,33.336999999999996,34.484,36.275999999999996,37.302,34.968
36.527,33.296,34.452,36.385,37.400999999999996,35.119
36.485,33.255,34.424,36.474000000000004,37.489000000000004,35.28
36.444,33.215,34.400999999999996,36.544000000000004,37.565,35.45
36.403,33.176,34.381,36.595,37.629,35.624
36.363,33.139,34.364000000000004,36.629,37.679,35.8
36.323,33.105,34.35,36.645,37.716,35.975
36.283,33.074,34.34,36.645,37.74,36.147
36.242,33.047,34.330999999999996,36.631,37.753,36.313
36.201,33.024,34.325,36.603,37.755,36.469
36.161,33.004,34.32,36.564,37.747,36.616
36.12,32.986999999999995,34.317,36.516,37.73,36.749
36.079,32.974000000000004,34.313,36.458,37.707,36.869
36.038000000000004,32.963,34.309,36.395,37.679,36.974000000000004
35.996,32.954,34.305,36.326,37.647,37.063
35.955,32.946999999999996,34.298,36.255,37.611999999999995,37.135999999999996
35.913000000000004,32.941,34.291,36.181,37.575,37.192
35.872,32.936,34.281,36.108000000000004,37.538000000000004,37.232
35.830999999999996,32.931999999999995,34.271,36.035,37.501999999999995,37.256
35.79,32.928000000000004,34.258,35.964,37.468,37.265
35.751,32.924,34.243,35.895,37.438,37.26
35.713,32.92,34.227,35.828,37.411,37.243
35.676,32.916,34.209,35.762,37.387,37.213
35.643,32.911,34.191,35.698,37.368,37.174
35.613,32.905,34.172,35.634,37.352,37.126
35.586,32.897,34.155,35.571,37.338,37.071
35.563,32.887,34.139,35.509,37.327,37.010999999999996
35.544000000000004,32.875,34.126,35.446999999999996,37.317,36.948
35.528,32.859,34.116,35.385999999999996,37.309,36.882
35.516999999999996,32.84,34.109,35.324,37.302,36.815
35.509,32.819,34.106,35.260999999999996,37.295,36.747
35.504,32.795,34.108000000000004,35.196999999999996,37.288000000000004,36.681
35.503,32.769,34.114000000000004,35.132,37.281,36.617
35.504,32.741,34.125,35.066,37.273,36.555
35.507,32.711,34.14,35.001,37.264,36.498000000000005
35.512,32.681,34.158,34.936,37.255,36.445
35.518,32.649,34.18,34.872,37.245,36.397
35.525999999999996,32.617,34.205,34.809,37.233000000000004,36.354
35.536,32.584,34.231,34.748000000000005,37.221,36.316
35.546,32.55,34.259,34.689,37.208,36.284
35.556999999999995,32.514,34.287,34.634,37.194,36.258
35.568000000000005,32.477,34.315,34.583,37.18,36.236
35.58,32.438,34.342,34.538000000000004,37.164,36.219
35.591,32.397,34.367,34.499,37.148,36.205
35.602,32.355,34.391,34.466,37.132,36.192
35.611999999999995,32.313,34.413000000000004,34.44,37.117,36.181
35.62,32.271,34.431,34.419000000000004,37.102,36.17
35.626,32.229,34.446999999999996,34.404,37.089,36.157
35.629,32.188,34.46,34.395,37.078,36.141999999999996
35.63,32.15,34.47,34.39,37.071,36.124
35.629,32.114000000000004,34.477,34.39,37.066,36.102
35.625,32.08,34.481,34.394,37.064,36.075
35.618,32.048,34.483000000000004,34.4,37.064,36.045
35.606,32.021,34.483000000000004,34.409,37.066,36.01
35.591,31.997,34.48,34.42,37.071,35.972
35.571999999999996,31.976,34.476,34.431999999999995,37.076,35.931
35.55,31.956999999999997,34.469,34.444,37.082,35.889
35.525,31.941,34.461999999999996,34.457,37.09,35.846
35.496,31.925,34.454,34.469,37.098,35.802
35.464,31.910999999999998,34.444,34.481,37.106,35.76
35.429,31.897,34.435,34.493,37.114000000000004,35.72
35.389,31.881999999999998,34.425,34.505,37.122,35.683
35.346,31.866,34.415,34.515,37.129,35.65
35.298,31.849,34.406,34.525,37.135,35.621
35.247,31.83,34.396,34.534,37.14,35.597
35.192,31.81,34.385999999999996,34.541,37.143,35.579
35.134,31.789,34.376,34.547,37.144,35.566
35.074,31.767,34.366,34.549,37.143,35.559
35.012,31.744,34.356,34.55,37.14,35.558
34.95,31.721,34.345,34.547,37.133,35.562
34.888000000000005,31.695999999999998,34.333,34.541,37.124,35.571999999999996
34.827,31.671,34.32,34.531,37.111999999999995,35.586
34.768,31.644000000000002,34.306999999999995,34.518,37.096,35.604
34.711,31.616999999999997,34.292,34.5,37.078,35.625
34.656,31.589000000000002,34.275,34.478,37.056,35.649
34.603,31.56,34.258,34.451,37.031,35.675
34.553000000000004,31.531,34.238,34.419000000000004,37.003,35.702
34.505,31.502,34.218,34.382,36.974000000000004,35.729
34.459,31.473000000000003,34.196999999999996,34.342,36.943000000000005,35.757
34.415,31.445,34.175,34.297,36.91,35.784
34.372,31.418000000000003,34.153,34.249,36.876,35.811
34.330999999999996,31.392,34.133,34.199,36.842,35.835
34.292,31.368000000000002,34.113,34.145,36.806999999999995,35.858000000000004
34.254,31.346,34.095,34.091,36.772,35.878
34.218,31.326,34.079,34.036,36.736999999999995,35.895
34.183,31.309,34.066,33.98,36.702,35.909
34.15,31.294,34.055,33.924,36.666,35.919000000000004
34.119,31.281999999999996,34.046,33.868,36.631,35.926
34.091,31.274,34.038000000000004,33.812,36.595,35.93
34.065,31.268,34.032,33.756,36.558,35.931
34.042,31.264,34.027,33.7,36.519,35.931
34.022,31.261999999999997,34.022,33.645,36.478,35.929
34.003,31.261,34.018,33.59,36.433,35.926
33.986999999999995,31.261,34.014,33.534,36.385,35.922
33.971,31.261,34.009,33.48,36.334,35.917
33.955,31.261999999999997,34.003,33.425,36.28,35.91
33.939,31.261999999999997,33.996,33.371,36.222,35.903
33.922,31.261,33.986,33.318000000000005,36.161,35.896
33.905,31.26,33.974000000000004,33.265,36.097,35.888000000000005
33.888000000000005,31.256999999999998,33.959,33.213,36.03,35.88
33.87,31.253,33.942,33.162,35.96,35.871
33.853,31.248,33.922,33.111,35.887,35.861999999999995
33.836,31.243000000000002,33.9,33.061,35.813,35.852
33.821999999999996,31.237,33.878,33.010999999999996,35.736999999999995,35.84
33.81,31.230999999999998,33.855,32.963,35.66,35.828
33.804,31.225,33.833,32.915,35.582,35.815
33.804,31.219,33.812,32.868,35.504,35.8
33.813,31.213,33.793,32.821,35.426,35.783
33.833,31.206999999999997,33.775,32.775999999999996,35.348,35.764
33.865,31.2,33.76,32.73,35.27,35.743
33.913000000000004,31.191,33.747,32.686,35.193000000000005,35.719
33.978,31.183000000000003,33.736,32.641,35.115,35.694
34.061,31.173000000000002,33.728,32.598,35.038000000000004,35.667
34.164,31.163,33.721,32.555,34.961,35.639
34.287,31.153000000000002,33.715,32.513000000000005,34.885,35.61
34.43,31.142,33.71,32.471,34.81,35.58
34.592,31.13,33.705,32.43,34.736,35.552
34.772,31.118000000000002,33.699,32.389,34.662,35.524
34.968,31.105,33.693000000000005,32.348,34.591,35.498000000000005
35.178000000000004,31.090999999999998,33.687,32.306999999999995,34.522,35.474000000000004
35.398,31.075,33.68,32.266,34.457,35.453
35.626,31.059,33.672,32.225,34.396,35.431999999999995
35.858000000000004,31.041,33.663000000000004,32.184,34.339,35.413000000000004
36.091,31.024,33.653,32.145,34.286,35.395
36.321,31.006,33.643,32.108000000000004,34.238,35.376
36.546,30.988000000000003,33.632,32.075,34.195,35.356
36.762,30.97,33.62,32.046,34.157,35.336
36.967,30.953000000000003,33.608000000000004,32.024,34.123000000000005,35.314
37.16,30.935,33.598,32.009,34.093,35.29
37.338,30.916999999999998,33.588,32.005,34.067,35.264
37.501,30.899,33.580999999999996,32.013000000000005,34.045,35.234
37.649,30.881,33.576,32.035,34.025,35.202
37.781,30.862,33.576,32.071999999999996,34.008,35.166
37.898,30.844,33.580999999999996,32.126,33.993,35.126999999999995
38.0,30.826999999999998,33.593,32.199,33.979,35.086
38.089,30.811999999999998,33.611999999999995,32.29,33.966,35.041
38.165,30.799,33.64,32.400999999999996,33.953,34.993
38.229,30.789,33.678000000000004,32.53,33.94,34.944
38.283,30.781999999999996,33.726,32.678000000000004,33.927,34.894
38.328,30.779,33.786,32.842,33.914,34.845
38.364000000000004,30.781999999999996,33.857,33.022,33.900999999999996,34.796
38.393,30.79,33.939,33.215,33.888000000000005,34.749
38.416,30.805,34.031,33.418,33.876999999999995,34.705
38.434,30.828000000000003,34.132,33.63,33.868,34.663000000000004
38.446999999999996,30.861,34.239000000000004,33.846,33.861,34.626
38.455999999999996,30.904,34.352,34.064,33.857,34.593
38.461999999999996,30.958000000000002,34.467,34.28,33.855,34.565
38.464,31.024,34.583,34.491,33.857,34.543
38.464,31.101,34.696999999999996,34.694,33.861999999999995,34.529
38.461,31.191,34.806999999999995,34.885999999999996,33.872,34.523
38.455999999999996,31.294,34.912,35.065,33.887,34.528
38.449,31.409000000000002,35.01,35.23,33.908,34.544000000000004
38.439,31.535999999999998,35.098,35.379,33.935,34.575
38.426,31.674,35.177,35.512,33.971,34.621
38.41,31.822,35.244,35.626999999999995,34.015,34.684
38.391999999999996,31.978,35.3,35.726,34.068000000000005,34.764
38.37,32.141999999999996,35.344,35.806999999999995,34.128,34.861999999999995
38.346,32.312,35.375,35.871,34.194,34.976
38.319,32.484,35.395,35.92,34.266,35.107
38.289,32.658,35.404,35.953,34.342,35.251999999999995
38.256,32.83,35.403,35.973,34.419000000000004,35.408
38.219,32.998000000000005,35.394,35.98,34.497,35.574
38.179,33.159,35.379,35.975,34.574,35.746
38.134,33.312,35.359,35.96,34.648,35.922
38.085,33.455,35.336,35.936,34.719,36.099000000000004
38.032,33.585,35.31,35.905,34.786,36.274
37.974000000000004,33.702,35.284,35.866,34.849000000000004,36.444
37.913000000000004,33.806,35.257,35.821999999999996,34.906,36.608000000000004
37.849000000000004,33.895,35.232,35.774,34.96,36.764
37.782,33.969,35.208,35.723,35.01,36.91
37.713,34.029,35.186,35.67,35.056,37.044000000000004
37.643,34.075,35.165,35.617,35.1,37.166
37.571,34.107,35.147,35.563,35.141999999999996,37.274
37.498000000000005,34.128,35.132,35.508,35.183,37.367
37.425,34.139,35.12,35.454,35.222,37.445
37.351,34.14,35.11,35.399,35.260999999999996,37.508
37.278,34.133,35.105,35.344,35.3,37.556
37.207,34.121,35.102,35.289,35.338,37.59
37.138000000000005,34.106,35.104,35.234,35.375,37.609
37.071,34.088,35.108000000000004,35.178000000000004,35.411,37.615
37.008,34.071,35.116,35.122,35.445,37.607
36.949,34.054,35.126999999999995,35.066,35.477,37.588
36.895,34.04,35.14,35.008,35.505,37.558
36.846,34.029,35.155,34.949,35.531,37.519
36.802,34.023,35.17,34.889,35.552,37.474000000000004
36.763000000000005,34.021,35.187,34.828,35.57,37.423
36.729,34.025,35.204,34.766999999999996,35.584,37.368
36.701,34.034,35.22,34.705999999999996,35.594,37.31
36.676,34.049,35.236,34.647,35.6,37.251999999999995
36.654,34.069,35.251999999999995,34.591,35.604,37.194
36.635,34.094,35.266999999999996,34.538000000000004,35.605,37.137
36.619,34.124,35.283,34.486999999999995,35.605,37.083
36.606,34.157,35.299,34.441,35.604,37.032
36.594,34.193000000000005,35.316,34.398,35.601,36.984
36.586,34.232,35.334,34.36,35.597,36.942
36.579,34.271,35.354,34.325,35.593,36.903
36.575,34.31,35.375,34.295,35.588,36.869
36.573,34.347,35.396,34.269,35.582,36.839
36.571999999999996,34.382,35.417,34.248000000000005,35.575,36.814
36.571999999999996,34.413000000000004,35.437,34.232,35.566,36.791
36.571999999999996,34.438,35.455,34.22,35.555,36.772
36.573,34.458,35.472,34.213,35.54,36.754
36.573,34.471,35.486,34.211,35.521,36.736999999999995
36.571999999999996,34.477,35.499,34.213,35.498000000000005,36.72
36.57,34.478,35.509,34.219,35.469,36.702
36.566,34.472,35.518,34.227,35.434,36.683
36.56,34.46,35.525999999999996,34.239000000000004,35.393,36.661
36.55,34.442,35.533,34.251999999999995,35.347,36.635999999999996
36.539,34.42,35.539,34.266999999999996,35.294000000000004,36.608000000000004
36.525,34.394,35.544000000000004,34.283,35.236,36.577
36.509,34.365,35.547,34.299,35.172,36.542
36.492,34.333,35.55,34.315,35.105,36.504
36.474000000000004,34.3,35.551,34.33,35.034,36.464
36.455999999999996,34.266,35.551,34.344,34.961,36.422
36.438,34.231,35.548,34.355,34.887,36.378
36.419000000000004,34.196999999999996,35.544000000000004,34.364000000000004,34.814,36.334
36.400999999999996,34.163000000000004,35.538000000000004,34.37,34.742,36.29
36.383,34.131,35.529,34.374,34.673,36.247
36.364000000000004,34.1,35.516,34.376,34.607,36.205
36.345,34.071,35.501,34.375,34.545,36.166
36.324,34.045,35.483000000000004,34.372,34.488,36.129
36.301,34.021,35.461999999999996,34.368,34.437,36.095
36.277,34.0,35.439,34.361,34.391,36.064
36.25,33.982,35.412,34.352,34.35,36.036
36.221,33.966,35.384,34.341,34.314,36.012
36.188,33.952,35.352,34.328,34.282,35.991
36.154,33.94,35.319,34.311,34.251999999999995,35.974000000000004
36.116,33.93,35.283,34.292,34.224000000000004,35.961
36.075,33.921,35.244,34.269,34.196999999999996,35.951
36.032,33.912,35.203,34.242,34.169000000000004,35.945
35.986,33.903,35.158,34.211,34.138000000000005,35.942
35.939,33.893,35.111,34.175,34.104,35.941
35.889,33.882,35.061,34.134,34.063,35.943000000000005
35.839,33.868,35.007,34.086999999999996,34.014,35.946
35.789,33.851,34.951,34.035,33.955999999999996,35.951
35.738,33.832,34.893,33.979,33.885999999999996,35.958
35.687,33.809,34.833,33.919000000000004,33.805,35.965
35.635999999999996,33.784,34.772,33.856,33.711,35.973
35.585,33.755,34.711,33.792,33.606,35.98
35.533,33.723,34.650999999999996,33.727,33.49,35.988
35.481,33.687,34.592,33.66,33.366,35.995
35.427,33.648,34.533,33.593,33.236,36.001
35.373000000000005,33.606,34.476,33.524,33.102,36.006
35.317,33.563,34.42,33.455,32.967,36.01
35.260999999999996,33.518,34.367,33.385999999999996,32.835,36.010999999999996
35.203,33.473,34.317,33.317,32.707,36.01
35.146,33.428000000000004,34.269,33.249,32.586,36.007
35.088,33.385,34.224000000000004,33.181999999999995,32.476,36.001
35.031,33.344,34.181999999999995,33.118,32.376999999999995,35.991
34.974000000000004,33.306999999999995,34.143,33.055,32.291,35.979
34.917,33.274,34.107,32.995,32.219,35.964
34.861,33.245,34.073,32.937,32.161,35.945
34.806999999999995,33.223,34.043,32.881,32.115,35.924
34.753,33.205999999999996,34.015,32.828,32.082,35.900999999999996
34.702,33.196,33.991,32.777,32.059,35.876
34.653,33.192,33.97,32.728,32.044000000000004,35.849000000000004
34.606,33.195,33.952,32.683,32.038000000000004,35.821
34.561,33.204,33.937,32.64,32.037,35.791
34.518,33.219,33.924,32.601,32.042,35.76
34.476,33.239000000000004,33.915,32.566,32.05,35.727
34.436,33.262,33.907,32.535,32.061,35.692
34.398,33.29,33.902,32.507,32.075,35.655
34.363,33.319,33.900999999999996,32.482,32.091,35.618
34.33,33.349000000000004,33.902,32.459,32.108000000000004,35.579
34.303000000000004,33.381,33.905,32.438,32.128,35.54
34.282,33.413000000000004,33.912,32.42,32.15,35.5
34.271,33.444,33.921,32.403,32.175,35.46
34.27,33.476,33.933,32.389,32.205,35.421
34.283,33.508,33.946999999999996,32.376999999999995,32.238,35.384
34.312,33.54,33.964,32.366,32.278,35.348
34.358000000000004,33.571,33.983000000000004,32.357,32.325,35.314
34.425,33.6,34.004,32.348,32.378,35.283
34.512,33.628,34.025999999999996,32.34,32.439,35.254
34.621,33.652,34.049,32.330999999999996,32.508,35.227
34.751,33.673,34.073,32.321999999999996,32.585,35.202
34.903,33.691,34.097,32.314,32.668,35.179
35.074,33.704,34.121,32.305,32.759,35.158
35.263000000000005,33.713,34.144,32.297,32.855,35.139
35.466,33.717,34.168,32.289,32.955999999999996,35.121
35.68,33.717,34.191,32.282,33.058,35.103
35.903,33.713,34.214,32.277,33.161,35.086
36.13,33.704,34.236999999999995,32.274,33.262,35.069
36.36,33.69,34.26,32.275,33.361999999999995,35.052
36.588,33.671,34.283,32.28,33.459,35.034
36.813,33.648,34.306999999999995,32.291,33.551,35.016
37.031,33.62,34.33,32.309,33.639,34.997
37.24,33.588,34.354,32.336,33.721,34.977
37.439,33.552,34.376999999999995,32.373000000000005,33.798,34.955999999999996
37.626,33.512,34.399,32.421,33.868,34.934
37.801,33.469,34.422,32.482,33.931999999999995,34.911
37.961999999999996,33.423,34.446,32.556999999999995,33.99,34.889
38.111,33.375,34.471,32.646,34.042,34.865
38.245,33.326,34.498000000000005,32.75,34.088,34.842
38.366,33.275999999999996,34.528,32.868,34.13,34.818000000000005
38.473,33.226,34.56,33.0,34.169000000000004,34.793
38.566,33.177,34.597,33.144,34.205999999999996,34.766999999999996
38.645,33.13,34.637,33.3,34.241,34.74
38.709,33.086,34.681999999999995,33.465,34.275999999999996,34.711
38.76,33.045,34.731,33.638000000000005,34.311,34.68
38.798,33.009,34.785,33.816,34.347,34.647
38.824,32.978,34.844,33.997,34.384,34.611
38.838,32.952,34.907,34.178000000000004,34.423,34.574
38.842,32.931999999999995,34.974000000000004,34.357,34.464,34.535
38.836,32.918,35.046,34.529,34.508,34.495
38.821,32.91,35.122,34.695,34.554,34.454
38.799,32.908,35.201,34.85,34.603,34.413000000000004
38.768,32.912,35.284,34.995,34.655,34.372
38.731,32.922,35.371,35.126,34.711,34.332
38.688,32.938,35.461,35.244,34.77,34.292
38.64,32.959,35.554,35.349000000000004,34.833,34.254
38.588,32.984,35.649,35.439,34.900999999999996,34.216
38.531,33.012,35.745,35.514,34.974000000000004,34.181
38.471,33.043,35.841,35.575,35.052,34.149
38.408,33.074,35.935,35.622,35.138000000000005,34.121
38.343,33.106,36.025999999999996,35.657,35.229,34.099000000000004
38.275999999999996,33.135999999999996,36.114000000000004,35.679,35.328,34.084
38.207,33.164,36.196999999999996,35.691,35.433,34.078
38.138000000000005,33.189,36.274,35.693000000000005,35.544000000000004,34.084
38.068000000000005,33.211,36.345,35.686,35.661,34.103
37.998000000000005,33.229,36.409,35.671,35.782,34.137
37.927,33.242,36.465,35.649,35.907,34.189
37.855,33.251,36.513000000000005,35.621,36.034,34.258
37.783,33.255,36.553000000000004,35.586999999999996,36.162,34.347
37.711,33.256,36.584,35.55,36.288000000000004,34.453
37.639,33.251999999999995,36.608000000000004,35.510999999999996,36.411,34.579
37.566,33.244,36.624,35.47,36.528,34.721
37.492,33.232,36.633,35.431,36.637,34.879
37.418,33.216,36.635999999999996,35.393,36.738,35.05
37.343,33.196999999999996,36.634,35.357,36.828,35.232
37.266999999999996,33.175,36.629,35.324,36.906,35.42
37.19,33.15,36.62,35.294000000000004,36.971,35.613
37.111999999999995,33.122,36.608000000000004,35.268,37.023,35.806
37.034,33.092,36.593,35.244,37.061,35.997
36.955999999999996,33.061,36.575,35.224000000000004,37.086,36.183
36.878,33.028,36.556,35.207,37.098,36.361999999999995
36.8,32.994,36.534,35.193000000000005,37.099000000000004,36.53
36.723,32.959,36.509,35.181999999999995,37.088,36.686
36.647,32.923,36.482,35.173,37.067,36.827
36.574,32.885,36.452,35.165,37.039,36.953
36.503,32.846,36.419000000000004,35.158,37.003,37.062
36.436,32.806,36.383,35.152,36.961,37.153
36.374,32.766,36.345,35.145,36.914,37.226
36.316,32.725,36.303000000000004,35.137,36.864000000000004,37.281
36.264,32.685,36.259,35.129,36.812,37.32
36.217,32.647,36.211,35.12,36.758,37.342
36.177,32.611,36.16,35.11,36.704,37.349000000000004
36.141999999999996,32.579,36.106,35.099000000000004,36.652,37.34
36.111999999999995,32.552,36.049,35.086999999999996,36.601,37.318000000000005
36.088,32.53,35.988,35.073,36.552,37.284
36.068000000000005,32.515,35.922,35.059,36.505,37.239000000000004
36.052,32.507,35.853,35.045,36.461,37.186
36.039,32.509,35.779,35.03,36.42,37.126999999999995
36.028,32.521,35.702,35.016,36.382,37.062
36.019,32.545,35.62,35.003,36.347,36.993
36.009,32.584,35.535,34.99,36.315,36.922
35.999,32.637,35.446,34.978,36.287,36.851
35.986999999999995,32.705999999999996,35.354,34.968,36.260999999999996,36.78
35.974000000000004,32.792,35.259,34.958,36.238,36.711999999999996
35.958,32.893,35.162,34.949,36.217,36.646
35.94,33.009,35.064,34.941,36.198,36.583
35.919000000000004,33.14,34.964,34.931999999999995,36.179,36.524
35.897,33.282,34.865,34.922,36.16,36.468
35.872,33.435,34.768,34.912,36.141999999999996,36.415
35.845,33.594,34.674,34.9,36.122,36.365
35.818000000000005,33.757,34.584,34.885999999999996,36.101,36.319
35.79,33.92,34.499,34.87,36.078,36.275999999999996
35.762,34.080999999999996,34.421,34.852,36.053000000000004,36.236
35.734,34.236,34.35,34.83,36.027,36.199
35.707,34.383,34.287,34.804,35.998000000000005,36.163000000000004
35.681,34.519,34.233000000000004,34.775,35.967,36.129
35.655,34.645,34.188,34.743,35.935,36.096
35.629,34.759,34.152,34.708,35.900999999999996,36.062
35.604,34.859,34.126999999999995,34.671,35.866,36.027
35.577,34.946999999999996,34.111,34.632,35.830999999999996,35.991
35.55,35.021,34.104,34.592,35.796,35.953
35.521,35.082,34.105,34.552,35.762,35.913000000000004
35.49,35.132,34.114000000000004,34.510999999999996,35.729,35.871
35.457,35.17,34.129,34.471,35.696999999999996,35.827
35.422,35.196999999999996,34.15,34.431,35.668,35.783
35.385,35.215,34.176,34.391,35.641,35.739000000000004
35.346,35.225,34.205999999999996,34.351,35.616,35.694
35.305,35.228,34.236999999999995,34.311,35.593,35.650999999999996
35.262,35.226,34.269,34.272,35.573,35.608000000000004
35.217,35.218,34.301,34.231,35.556,35.569
35.17,35.207,34.333,34.189,35.54,35.532
35.12,35.193000000000005,34.363,34.147,35.525,35.5
35.069,35.177,34.391999999999996,34.103,35.513000000000005,35.471
35.016,35.16,34.419000000000004,34.058,35.501,35.446
34.963,35.143,34.444,34.012,35.491,35.424
34.91,35.125,34.467,33.966,35.483000000000004,35.406
34.858000000000004,35.108000000000004,34.486999999999995,33.92,35.474000000000004,35.391999999999996
34.806999999999995,35.091,34.506,33.873000000000005,35.466,35.381
34.758,35.075,34.523,33.827,35.459,35.373000000000005
34.709,35.06,34.539,33.781,35.452,35.367
34.662,35.047,34.554,33.735,35.445,35.364000000000004
34.616,35.035,34.569,33.688,35.439,35.363
34.571,35.024,34.584,33.641,35.434,35.364000000000004
34.527,35.014,34.599000000000004,33.594,35.43,35.367
34.484,35.003,34.614000000000004,33.547,35.427,35.371
34.442,34.991,34.63,33.5,35.425,35.376
34.402,34.977,34.647,33.454,35.424,35.382
34.363,34.96,34.664,33.41,35.423,35.388000000000005
34.326,34.939,34.68,33.369,35.422,35.394
34.29,34.913000000000004,34.696,33.33,35.419000000000004,35.399
34.255,34.881,34.711,33.294000000000004,35.415,35.403
34.221,34.843,34.724000000000004,33.260999999999996,35.409,35.406
34.187,34.799,34.734,33.229,35.400999999999996,35.407
34.153,34.747,34.74,33.2,35.391,35.406
34.12,34.69,34.743,33.172,35.379,35.403
34.086,34.626,34.741,33.146,35.365,35.398
34.051,34.556999999999995,34.734,33.121,35.348,35.39
34.015,34.483000000000004,34.722,33.1,35.33,35.38
33.979,34.407,34.705,33.080999999999996,35.308,35.368
33.942,34.33,34.683,33.065,35.283,35.354
33.905,34.253,34.658,33.053000000000004,35.254,35.338
33.868,34.177,34.63,33.045,35.222,35.321
33.83,34.103,34.601,33.041,35.187,35.303000000000004
33.793,34.034,34.571999999999996,33.041,35.148,35.283
33.755,33.969,34.544000000000004,33.043,35.107,35.263000000000005
33.718,33.91,34.518,33.048,35.064,35.242
33.681999999999995,33.859,34.494,33.054,35.019,35.22
33.647,33.815,34.474000000000004,33.061,34.973,35.196999999999996
33.615,33.779,34.459,33.068000000000005,34.925,35.173
33.588,33.751,34.446999999999996,33.073,34.876999999999995,35.148
33.569,33.732,34.44,33.075,34.828,35.124
33.559,33.721,34.438,33.074,34.778,35.099000000000004
33.563,33.719,34.441,33.069,34.727,35.074
33.583,33.724000000000004,34.446999999999996,33.06,34.676,35.049
33.622,33.735,34.458,33.046,34.624,35.024
33.684,33.753,34.47,33.029,34.571,34.999
33.769,33.778,34.484,33.008,34.519,34.973
33.878,33.806999999999995,34.499,32.985,34.466,34.946
34.012,33.84,34.513000000000005,32.961,34.412,34.918
34.17,33.876,34.525,32.936,34.359,34.889
34.351,33.914,34.534,32.913000000000004,34.305,34.858000000000004
34.554,33.953,34.539,32.891999999999996,34.251999999999995,34.826
34.775999999999996,33.992,34.541,32.875,34.198,34.793
35.013000000000005,34.031,34.539,32.865,34.146,34.759
35.260999999999996,34.069,34.533,32.861999999999995,34.095,34.724000000000004
35.518,34.106,34.523,32.869,34.046,34.689
35.779,34.141999999999996,34.51,32.889,34.0,34.654
36.042,34.175,34.493,32.922,33.955999999999996,34.62
36.302,34.207,34.474000000000004,32.971,33.914,34.588
36.556,34.236999999999995,34.453,33.036,33.874,34.556999999999995
36.803000000000004,34.264,34.43,33.119,33.835,34.528
37.038000000000004,34.288000000000004,34.406,33.218,33.799,34.501
37.26,34.31,34.381,33.335,33.764,34.475
37.468,34.33,34.356,33.469,33.73,34.451
37.661,34.348,34.330999999999996,33.617,33.696999999999996,34.428000000000004
37.836999999999996,34.364000000000004,34.308,33.779,33.664,34.408
37.996,34.376999999999995,34.288000000000004,33.951,33.632,34.388000000000005
38.138000000000005,34.389,34.27,34.131,33.601,34.37
38.263000000000005,34.398,34.255,34.317,33.57,34.352
38.37,34.406,34.246,34.507,33.539,34.335
38.461,34.412,34.243,34.696999999999996,33.509,34.318000000000005
38.535,34.417,34.246,34.885,33.48,34.301
38.594,34.42,34.257,35.068000000000005,33.452,34.284
38.638000000000005,34.421,34.277,35.244,33.426,34.266
38.669000000000004,34.421,34.306,35.409,33.404,34.246
38.687,34.418,34.346,35.563,33.385,34.225
38.693000000000005,34.413000000000004,34.397,35.702,33.372,34.202
38.69,34.406,34.46,35.827,33.365,34.176
38.679,34.396,34.533,35.934,33.365,34.149
38.66,34.384,34.617,36.024,33.374,34.119
38.635999999999996,34.37,34.71,36.097,33.393,34.086999999999996
38.606,34.353,34.812,36.152,33.423,34.053000000000004
38.57,34.335,34.92,36.191,33.463,34.016999999999996
38.531,34.314,35.032,36.213,33.515,33.981
38.486999999999995,34.293,35.146,36.22,33.577,33.944
38.44,34.27,35.26,36.213,33.65,33.908
38.389,34.246,35.373000000000005,36.193000000000005,33.732,33.874
38.335,34.222,35.482,36.162,33.823,33.841
38.277,34.198,35.586999999999996,36.121,33.92,33.811
38.215,34.175,35.687,36.071999999999996,34.024,33.784
38.149,34.150999999999996,35.78,36.016,34.132,33.76
38.079,34.126,35.864000000000004,35.955999999999996,34.242,33.74
38.005,34.1,35.94,35.894,34.353,33.724000000000004
37.927,34.074,36.006,35.83,34.461999999999996,33.713
37.847,34.047,36.062,35.768,34.567,33.707
37.764,34.02,36.107,35.709,34.667,33.71
37.679,33.992,36.141,35.654,34.76,33.722
37.593,33.965,36.165,35.603,34.845,33.744
37.505,33.938,36.177,35.558,34.92,33.78
37.417,33.912,36.18,35.52,34.986999999999995,33.829
37.329,33.887,36.174,35.486999999999995,35.045,33.894
37.242,33.863,36.16,35.461,35.094,33.975
37.158,33.841,36.141,35.44,35.135,34.073
37.076,33.82,36.117,35.424,35.167,34.187
36.998000000000005,33.801,36.09,35.413000000000004,35.191,34.318000000000005
36.925,33.783,36.06,35.405,35.207,34.463
36.857,33.768,36.029,35.399,35.215,34.623000000000005
36.795,33.754,35.998000000000005,35.394,35.217,34.793
36.738,33.741,35.966,35.39,35.211999999999996,34.972
36.687,33.729,35.936,35.385,35.201,35.156
36.641999999999996,33.719,35.907,35.379,35.185,35.344
36.604,33.71,35.88,35.371,35.163000000000004,35.532
36.574,33.701,35.855,35.361,35.137,35.716
36.551,33.694,35.832,35.347,35.108000000000004,35.895
36.535,33.688,35.812,35.330999999999996,35.076,36.065
36.525999999999996,33.683,35.793,35.312,35.043,36.226
36.522,33.68,35.775999999999996,35.29,35.009,36.374
36.525,33.678000000000004,35.758,35.265,34.976,36.509
36.532,33.678000000000004,35.741,35.236999999999995,34.944,36.628
36.544000000000004,33.679,35.722,35.205999999999996,34.914,36.732
36.56,33.681,35.702,35.172,34.887,36.821
36.579,33.684,35.681,35.135999999999996,34.861999999999995,36.894
36.601,33.686,35.658,35.099000000000004,34.842,36.952
36.625,33.688,35.634,35.062,34.824,36.997
36.649,33.689,35.608000000000004,35.024,34.811,37.027
36.675,33.689,35.580999999999996,34.986999999999995,34.8,37.046
36.701,33.687,35.554,34.952,34.794000000000004,37.052
36.727,33.683,35.525999999999996,34.918,34.79,37.049
36.753,33.677,35.499,34.887,34.789,37.036
36.779,33.669000000000004,35.472,34.86,34.789,37.016
36.804,33.659,35.446999999999996,34.836,34.791,36.988
36.828,33.649,35.423,34.816,34.794000000000004,36.955999999999996
36.849000000000004,33.639,35.400999999999996,34.8,34.797,36.918
36.867,33.629,35.38,34.786,34.799,36.876
36.881,33.619,35.361,34.775999999999996,34.8,36.830999999999996
36.891999999999996,33.61,35.345,34.766,34.8,36.783
36.899,33.601,35.332,34.757,34.797,36.734
36.902,33.592,35.32,34.748000000000005,34.793,36.683
36.900999999999996,33.582,35.311,34.738,34.787,36.633
36.896,33.571999999999996,35.305,34.727,34.778,36.583
36.888000000000005,33.56,35.301,34.715,34.766,36.535
36.876,33.548,35.299,34.701,34.751999999999995,36.49
36.861,33.535,35.3,34.686,34.735,36.446999999999996
36.844,33.52,35.301,34.67,34.715,36.407
36.824,33.503,35.303000000000004,34.650999999999996,34.694,36.369
36.801,33.486,35.305,34.631,34.671,36.334
36.775999999999996,33.467,35.306999999999995,34.609,34.646,36.299
36.748000000000005,33.446999999999996,35.309,34.584,34.62,36.266
36.717,33.427,35.309,34.556999999999995,34.594,36.232
36.684,33.406,35.308,34.527,34.568000000000005,36.199
36.649,33.385,35.305,34.496,34.543,36.166
36.611,33.364000000000004,35.301,34.463,34.518,36.132
36.57,33.343,35.296,34.429,34.494,36.097
36.527,33.321,35.29,34.393,34.472,36.061
36.481,33.299,35.284,34.356,34.451,36.024
36.431,33.277,35.277,34.319,34.431999999999995,35.986
36.379,33.254,35.269,34.282,34.415,35.946
36.324,33.231,35.260999999999996,34.246,34.4,35.906
36.266,33.208,35.251,34.211,34.388000000000005,35.865
36.207,33.185,35.24,34.177,34.378,35.823
36.145,33.161,35.227,34.145,34.371,35.781
36.084,33.135999999999996,35.211999999999996,34.114000000000004,34.368,35.74
36.022,33.111,35.195,34.084,34.368,35.7
35.959,33.085,35.175,34.056,34.37,35.661
35.898,33.059,35.155,34.029,34.374,35.624
35.838,33.033,35.132,34.001999999999995,34.38,35.591
35.779,33.007,35.109,33.976,34.385999999999996,35.561
35.722,32.982,35.085,33.949,34.394,35.536
35.668,32.957,35.061,33.922,34.400999999999996,35.516
35.616,32.931,35.037,33.894,34.407,35.501
35.566,32.906,35.013000000000005,33.863,34.413000000000004,35.491
35.519,32.88,34.989000000000004,33.83,34.416,35.486
35.475,32.854,34.964,33.794000000000004,34.417,35.486999999999995
35.434,32.827,34.94,33.754,34.415,35.491
35.396,32.798,34.915,33.711,34.409,35.498000000000005
35.36,32.766,34.891,33.666,34.400999999999996,35.509
35.324,32.733000000000004,34.866,33.619,34.389,35.522
35.289,32.696,34.84,33.571,34.375,35.536
35.251999999999995,32.657,34.814,33.524,34.358000000000004,35.552
35.214,32.615,34.786,33.476,34.339,35.569
35.173,32.57,34.757,33.428000000000004,34.318000000000005,35.586
35.13,32.522,34.726,33.381,34.296,35.604
35.084,32.473,34.693000000000005,33.335,34.273,35.622
35.036,32.422,34.657,33.289,34.248000000000005,35.64
34.985,32.371,34.62,33.244,34.221,35.659
34.931,32.319,34.582,33.199,34.193000000000005,35.677
34.874,32.268,34.542,33.155,34.164,35.695
34.814,32.219,34.501,33.113,34.133,35.711999999999996
34.751,32.171,34.46,33.071999999999996,34.101,35.727
34.687,32.126,34.418,33.032,34.068000000000005,35.741
34.621,32.082,34.375,32.993,34.035,35.751999999999995
34.554,32.041,34.333,32.955999999999996,34.001999999999995,35.760999999999996
34.488,32.003,34.291,32.918,33.969,35.766999999999996
34.422,31.967,34.25,32.882,33.937,35.77
34.359,31.935,34.211,32.846,33.906,35.77
34.299,31.908,34.173,32.81,33.875,35.768
34.246,31.885,34.139,32.774,33.845,35.764
34.2,31.866999999999997,34.106,32.738,33.814,35.756
34.165,31.855,34.075,32.702,33.784,35.747
34.145,31.849,34.046,32.667,33.753,35.736
34.141999999999996,31.848000000000003,34.018,32.632,33.722,35.723
34.158,31.853,33.991,32.598,33.691,35.709
34.198,31.864,33.965,32.566,33.66,35.693000000000005
34.262,31.881999999999998,33.94,32.536,33.63,35.675
34.351,31.906999999999996,33.916,32.51,33.602,35.655
34.467,31.939,33.893,32.488,33.575,35.633
34.609,31.980999999999998,33.871,32.472,33.55,35.609
34.775,32.031,33.85,32.463,33.525999999999996,35.582
34.965,32.092,33.83,32.461999999999996,33.504,35.552
35.176,32.164,33.811,32.469,33.484,35.519
35.404,32.248000000000005,33.794000000000004,32.486,33.466,35.484
35.646,32.345,33.779,32.513000000000005,33.45,35.446
35.9,32.455,33.766,32.552,33.435,35.406
36.16,32.578,33.758,32.603,33.422,35.366
36.422,32.711999999999996,33.754,32.666,33.409,35.324
36.684,32.858000000000004,33.756,32.743,33.398,35.282
36.941,33.014,33.764,32.832,33.388000000000005,35.24
37.19,33.176,33.781,32.934,33.378,35.2
37.429,33.344,33.806999999999995,33.048,33.368,35.161
37.657,33.515,33.843,33.174,33.358000000000004,35.123000000000005
37.87,33.685,33.89,33.309,33.348,35.089
38.067,33.851,33.95,33.454,33.336999999999996,35.056
38.249,34.012,34.023,33.606,33.324,35.025999999999996
38.412,34.164,34.109,33.764,33.31,34.999
38.558,34.305,34.207,33.926,33.295,34.973
38.685,34.434,34.317,34.089,33.278,34.949
38.794000000000004,34.549,34.438,34.251999999999995,33.262,34.926
38.884,34.649,34.569,34.413000000000004,33.247,34.904
38.957,34.733000000000004,34.708,34.569,33.235,34.882
39.012,34.803000000000004,34.853,34.719,33.226,34.861
39.05,34.856,35.001999999999995,34.859,33.224000000000004,34.84
39.073,34.895,35.153,34.988,33.229,34.819
39.080999999999996,34.92,35.303000000000004,35.106,33.244,34.797
39.077,34.931,35.45,35.21,33.27,34.775
39.06,34.931999999999995,35.591,35.3,33.308,34.754
39.033,34.922,35.724000000000004,35.376999999999995,33.359,34.733000000000004
38.997,34.903,35.849000000000004,35.439,33.423,34.714
38.953,34.876999999999995,35.961999999999996,35.486999999999995,33.501,34.696
38.900999999999996,34.844,36.064,35.522,33.591,34.679
38.843,34.808,36.153,35.544000000000004,33.693000000000005,34.664
38.78,34.766999999999996,36.229,35.553000000000004,33.805,34.650999999999996
38.713,34.724000000000004,36.292,35.552,33.925,34.64
38.641999999999996,34.68,36.342,35.542,34.052,34.629
38.567,34.635999999999996,36.38,35.523,34.183,34.619
38.49,34.593,36.407,35.499,34.314,34.609
38.411,34.553000000000004,36.424,35.47,34.443000000000005,34.598
38.329,34.515,36.431,35.438,34.567,34.586
38.244,34.482,36.43,35.403,34.683,34.571999999999996
38.157,34.453,36.422,35.368,34.788000000000004,34.556
38.066,34.428000000000004,36.408,35.332,34.881,34.538000000000004
37.971,34.408,36.389,35.299,34.961,34.518
37.874,34.391999999999996,36.366,35.268,35.027,34.495
37.775,34.381,36.341,35.24,35.079,34.47
37.674,34.374,36.313,35.215,35.118,34.442
37.571999999999996,34.372,36.284,35.193000000000005,35.144,34.412
37.47,34.375,36.254,35.174,35.159,34.379
37.368,34.381,36.224000000000004,35.158,35.164,34.345
37.266,34.39,36.194,35.143,35.161,34.308
37.165,34.402,36.166,35.13,35.15,34.27
37.065,34.415,36.138000000000005,35.118,35.134,34.23
36.966,34.43,36.111999999999995,35.105,35.111999999999995,34.19
36.868,34.445,36.086,35.092,35.086999999999996,34.149
36.772,34.459,36.061,35.079,35.059,34.109
36.678000000000004,34.472,36.036,35.066,35.028,34.071999999999996
36.586,34.484,36.010999999999996,35.052,34.997,34.04
36.498000000000005,34.494,35.986999999999995,35.037,34.964,34.016
36.414,34.503,35.963,35.02,34.93,34.001
36.334,34.51,35.939,35.001999999999995,34.895,33.999
36.258,34.515,35.915,34.98,34.86,34.012
36.189,34.518,35.891,34.955999999999996,34.826,34.043
36.128,34.518,35.868,34.929,34.792,34.093
36.076,34.518,35.845,34.900999999999996,34.76,34.165
36.034,34.515,35.821999999999996,34.871,34.731,34.258
36.003,34.512,35.799,34.842,34.705,34.373000000000005
35.981,34.509,35.775999999999996,34.812,34.683,34.508
35.968,34.506,35.753,34.783,34.664,34.662
35.961,34.504,35.73,34.755,34.649,34.830999999999996
35.96,34.504,35.708,34.728,34.637,35.014
35.961999999999996,34.506,35.685,34.704,34.626999999999995,35.208
35.966,34.51,35.662,34.683,34.621,35.408
35.971,34.516999999999996,35.639,34.665,34.616,35.613
35.975,34.527,35.617,34.650999999999996,34.613,35.818000000000005
35.978,34.539,35.594,34.64,34.611,36.021
35.98,34.555,35.571999999999996,34.633,34.61,36.22
35.979,34.573,35.551,34.629,34.609,36.41
35.977,34.594,35.53,34.626999999999995,34.609,36.591
35.973,34.617,35.51,34.626999999999995,34.608000000000004,36.76
35.967,34.641999999999996,35.491,34.629,34.607,36.915
35.96,34.669000000000004,35.474000000000004,34.631,34.604,37.055
35.951,34.696999999999996,35.458,34.634,34.601,37.179
35.942,34.725,35.444,34.637,34.595,37.286
35.931999999999995,34.753,35.431,34.639,34.586999999999996,37.375
35.923,34.78,35.419000000000004,34.64,34.576,37.446999999999996
35.915,34.804,35.408,34.64,34.564,37.503
35.909,34.824,35.399,34.639,34.55,37.542
35.904,34.841,35.391,34.635,34.534,37.565
35.900999999999996,34.853,35.385,34.629,34.516,37.575
35.900999999999996,34.861999999999995,35.381,34.621,34.498000000000005,37.571
35.904,34.868,35.378,34.609,34.479,37.556999999999995
35.911,34.87,35.375,34.595,34.46,37.534
35.923,34.87,35.374,34.577,34.441,37.504
35.94,34.867,35.373000000000005,34.556,34.423,37.468
35.961999999999996,34.863,35.372,34.532,34.407,37.428000000000004
35.988,34.858000000000004,35.371,34.506,34.393,37.385999999999996
36.016999999999996,34.853,35.371,34.477,34.381,37.343
36.045,34.847,35.369,34.446,34.372,37.302
36.069,34.842,35.368,34.414,34.367,37.260999999999996
36.086999999999996,34.838,35.366,34.38,34.365,37.224000000000004
36.095,34.835,35.363,34.344,34.366,37.189
36.093,34.832,35.36,34.308,34.371,37.158
36.08,34.83,35.356,34.272,34.38,37.131
36.058,34.827,35.351,34.236,34.391,37.108000000000004
36.028,34.824,35.346,34.199,34.405,37.088
35.991,34.821,35.341,34.163000000000004,34.421,37.07
35.95,34.816,35.336,34.126999999999995,34.439,37.053000000000004
35.905,34.811,35.333,34.09,34.457,37.036
35.857,34.804,35.332,34.054,34.475,37.018
35.808,34.796,35.332,34.018,34.494,37.0
35.758,34.787,35.333,33.982,34.512,36.98
35.707,34.777,35.336,33.944,34.528,36.958
35.657,34.765,35.34,33.906,34.543,36.934
35.608000000000004,34.753,35.346,33.868,34.555,36.908
35.56,34.739000000000004,35.353,33.829,34.564,36.881
35.512,34.725,35.361,33.79,34.569,36.853
35.464,34.71,35.37,33.751,34.57,36.823
35.416,34.693000000000005,35.381,33.713,34.568000000000005,36.794000000000004
35.368,34.675,35.391999999999996,33.675,34.561,36.764
35.319,34.655,35.403,33.637,34.551,36.734
35.269,34.633,35.415,33.598,34.537,36.705
35.218,34.611,35.426,33.56,34.52,36.677
35.167,34.586999999999996,35.435,33.522,34.5,36.65
35.114000000000004,34.562,35.443000000000005,33.484,34.478,36.624
35.062,34.537,35.446999999999996,33.448,34.455,36.6
35.009,34.513000000000005,35.449,33.412,34.431999999999995,36.578
34.955999999999996,34.489000000000004,35.448,33.378,34.408,36.559
34.904,34.467,35.445,33.344,34.384,36.542
34.852,34.445,35.438,33.312,34.361,36.528
34.801,34.424,35.429,33.282,34.339,36.516999999999996
34.751,34.403,35.418,33.255,34.318000000000005,36.508
34.704,34.383,35.406,33.23,34.298,36.501
34.658,34.364000000000004,35.391999999999996,33.207,34.279,36.496
34.615,34.344,35.376999999999995,33.186,34.262,36.493
34.573,34.325,35.361,33.167,34.246,36.491
34.534,34.305,35.343,33.149,34.23,36.49
34.496,34.285,35.324,33.132,34.215,36.491
34.461,34.265,35.303000000000004,33.115,34.2,36.493
34.428000000000004,34.246,35.281,33.099000000000004,34.185,36.495
34.4,34.226,35.256,33.083,34.168,36.499
34.379,34.205999999999996,35.228,33.068000000000005,34.150999999999996,36.501999999999995
34.365,34.187,35.199,33.055,34.132,36.506
34.363,34.17,35.167,33.042,34.113,36.51
34.374,34.154,35.132,33.03,34.093,36.514
34.4,34.139,35.097,33.02,34.073,36.516999999999996
34.445,34.125,35.06,33.01,34.054,36.519
34.509,34.114000000000004,35.024,33.0,34.034,36.52
34.594,34.103,34.989000000000004,32.991,34.015,36.52
34.701,34.095,34.955,32.981,33.996,36.519
34.83,34.088,34.923,32.973,33.977,36.516
34.98,34.084,34.891999999999996,32.966,33.959,36.510999999999996
35.152,34.080999999999996,34.864000000000004,32.961,33.94,36.504
35.344,34.08,34.836999999999996,32.96,33.923,36.493
35.554,34.08,34.814,32.964,33.905,36.48
35.78,34.082,34.794000000000004,32.975,33.888000000000005,36.464
36.018,34.086,34.779,32.994,33.871,36.446
36.266,34.09,34.77,33.022,33.855,36.426
36.52,34.093,34.766999999999996,33.06,33.838,36.405
36.775,34.096,34.772,33.111,33.821,36.383
37.03,34.096,34.787,33.174,33.804,36.361
37.28,34.095,34.812,33.25,33.786,36.338
37.523,34.09,34.849000000000004,33.339,33.769,36.315
37.755,34.083,34.898,33.44,33.75,36.292
37.976,34.071999999999996,34.959,33.553000000000004,33.732,36.268
38.181999999999995,34.058,35.032,33.677,33.713,36.243
38.373000000000005,34.041,35.117,33.81,33.694,36.217
38.547,34.021,35.211,33.95,33.674,36.191
38.704,33.999,35.314,34.097,33.655,36.164
38.842,33.975,35.424,34.247,33.635,36.135
38.963,33.949,35.539,34.4,33.616,36.106
39.066,33.922,35.656,34.551,33.597,36.075
39.153,33.894,35.773,34.701,33.58,36.044000000000004
39.223,33.867,35.887,34.846,33.565,36.010999999999996
39.278,33.84,35.997,34.985,33.554,35.978
39.317,33.814,36.1,35.116,33.547,35.943000000000005
39.343,33.789,36.195,35.238,33.547,35.907
39.356,33.766,36.279,35.348,33.555,35.87
39.357,33.743,36.353,35.446999999999996,33.571999999999996,35.832
39.347,33.722,36.413000000000004,35.533,33.6,35.793
39.326,33.701,36.461,35.606,33.64,35.754
39.297,33.681,36.494,35.666,33.694,35.715
39.26,33.661,36.514,35.713,33.760999999999996,35.676
39.215,33.641,36.52,35.747,33.841,35.638000000000005
39.164,33.622,36.513000000000005,35.77,33.934,35.6
39.106,33.603,36.495,35.782,34.039,35.562
39.044000000000004,33.584,36.464,35.785,34.154,35.525999999999996
38.978,33.566,36.423,35.78,34.277,35.49
38.907,33.548,36.372,35.766999999999996,34.406,35.454
38.833,33.53,36.313,35.748000000000005,34.539,35.42
38.756,33.510999999999996,36.248000000000005,35.723,34.673,35.385999999999996
38.677,33.491,36.179,35.694,34.806,35.354
38.595,33.471,36.108000000000004,35.662,34.935,35.323
38.510999999999996,33.449,36.036,35.626999999999995,35.059,35.294000000000004
38.424,33.425,35.967,35.591,35.174,35.266999999999996
38.335,33.4,35.900999999999996,35.554,35.281,35.241
38.243,33.373000000000005,35.841,35.516,35.376,35.216
38.148,33.345,35.787,35.479,35.46,35.194
38.05,33.317,35.742,35.442,35.532,35.172
37.95,33.289,35.705,35.407,35.59,35.150999999999996
37.848,33.262,35.676,35.374,35.637,35.132
37.743,33.236999999999995,35.656,35.343,35.671,35.111999999999995
37.635999999999996,33.215,35.641999999999996,35.314,35.694,35.093
37.528,33.196,35.635999999999996,35.286,35.705,35.073
37.42,33.18,35.635,35.259,35.705999999999996,35.053000000000004
37.313,33.167,35.638000000000005,35.233000000000004,35.698,35.033
37.208,33.158,35.645,35.207,35.681,35.010999999999996
37.108000000000004,33.152,35.654,35.181999999999995,35.656,34.988
37.012,33.149,35.665,35.156,35.625,34.963
36.923,33.15,35.676,35.13,35.59,34.935
36.839,33.155,35.685,35.104,35.551,34.905
36.762,33.163000000000004,35.692,35.076,35.51,34.872
36.693000000000005,33.176,35.696999999999996,35.047,35.468,34.834
36.632,33.193000000000005,35.698,35.016,35.428000000000004,34.794000000000004
36.578,33.216,35.696999999999996,34.983000000000004,35.389,34.749
36.533,33.246,35.694,34.948,35.353,34.702
36.495,33.283,35.688,34.912,35.321999999999996,34.652
36.465,33.328,35.68,34.874,35.294000000000004,34.599000000000004
36.441,33.381,35.671,34.836,35.271,34.543
36.424,33.444,35.661,34.798,35.253,34.485
