Trial 1:0back,Trial 2:2back,Trial 3:3back,Trial 4:2back,Trial 5:3back,Trial 6:0back
35.638000000000005,34.953,34.846,32.1,33.055,33.226
36.071999999999996,34.952,34.795,32.052,33.012,33.178000000000004
36.53,34.946,34.738,32.003,32.976,33.128
37.005,34.931999999999995,34.677,31.954,32.948,33.074
37.489000000000004,34.914,34.61,31.906,32.929,33.019
37.973,34.89,34.539,31.861,32.921,32.963
38.45,34.86,34.464,31.82,32.925,32.908
38.912,34.824,34.385999999999996,31.785999999999998,32.944,32.855
39.352,34.783,34.305,31.76,32.982,32.806999999999995
39.764,34.736,34.223,31.743000000000002,33.042,32.763000000000005
40.141,34.685,34.139,31.741,33.129,32.726
40.478,34.63,34.053000000000004,31.756999999999998,33.247,32.698
40.771,34.571999999999996,33.967,31.795,33.4,32.681
41.019,34.510999999999996,33.882,31.862,33.594,32.678000000000004
41.222,34.448,33.798,31.961,33.83,32.691
41.38,34.383,33.716,32.098,34.111,32.725
41.495,34.314,33.634,32.278,34.438,32.781
41.57,34.242,33.556,32.506,34.808,32.863
41.608000000000004,34.167,33.48,32.786,35.217,32.976
41.611000000000004,34.089,33.408,33.121,35.658,33.123000000000005
41.583999999999996,34.008,33.339,33.512,36.123000000000005,33.309
41.531000000000006,33.924,33.274,33.96,36.6,33.54
41.456,33.84,33.21,34.464,37.077,33.818000000000005
41.361999999999995,33.754,33.147,35.018,37.543,34.148
41.251999999999995,33.669000000000004,33.084,35.615,37.985,34.529
41.131,33.584,33.021,36.245,38.391999999999996,34.959
40.998999999999995,33.501,32.958,36.896,38.757,35.431999999999995
40.858000000000004,33.42,32.895,37.556,39.071,35.941
40.711,33.341,32.833,38.21,39.33,36.472
40.558,33.264,32.771,38.844,39.53,37.015
40.403,33.189,32.709,39.444,39.67,37.556
40.245,33.115,32.647,39.998000000000005,39.751999999999995,38.080999999999996
40.086,33.042,32.583,40.496,39.779,38.577
39.926,32.97,32.52,40.929,39.755,39.033
39.765,32.899,32.457,41.293,39.687,39.44
39.604,32.827,32.394,41.583,39.58,39.789
39.442,32.755,32.332,41.8,39.442,40.077
39.28,32.685,32.271,41.946000000000005,39.278,40.3
39.121,32.616,32.211999999999996,42.023,39.097,40.458
38.963,32.55,32.156,42.037,38.905,40.551
38.806999999999995,32.485,32.101,41.995,38.708,40.582
38.652,32.422,32.05,41.903999999999996,38.510999999999996,40.555
38.5,32.361,32.001,41.772,38.319,40.478
38.349000000000004,32.301,31.954,41.608000000000004,38.134,40.357
38.2,32.241,31.91,41.419,37.96,40.201
38.051,32.181999999999995,31.868000000000002,41.211999999999996,37.797,40.018
37.904,32.125,31.829,40.994,37.645,39.818000000000005
37.757,32.069,31.793000000000003,40.77,37.506,39.607
37.61,32.013000000000005,31.759,40.545,37.378,39.39
37.465,31.959,31.728,40.323,37.260999999999996,39.172
37.32,31.906999999999996,31.698,40.105,37.150999999999996,38.957
37.177,31.857,31.67,39.894,37.047,38.748000000000005
37.034,31.809,31.645,39.691,36.946999999999996,38.546
36.891999999999996,31.764,31.623,39.497,36.849000000000004,38.354
36.753,31.723000000000003,31.605999999999998,39.312,36.753,38.17
36.617,31.684,31.596999999999998,39.135,36.656,37.996
36.485,31.649,31.599,38.964,36.56,37.830999999999996
36.358000000000004,31.619,31.615,38.8,36.464,37.673
36.238,31.593000000000004,31.649,38.64,36.369,37.522
36.124,31.573,31.705,38.484,36.274,37.376999999999995
36.015,31.563000000000002,31.791,38.330999999999996,36.18,37.235
35.914,31.563000000000002,31.91,38.18,36.086,37.095
35.819,31.579,32.069,38.03,35.992,36.958
35.732,31.613000000000003,32.274,37.88,35.899,36.824
35.653,31.671999999999997,32.528,37.73,35.806,36.692
35.584,31.761999999999997,32.835,37.578,35.713,36.561
35.524,31.89,33.196,37.425,35.62,36.429
35.474000000000004,32.061,33.61,37.27,35.527,36.295
35.431999999999995,32.283,34.075,37.113,35.436,36.156
35.399,32.56,34.585,36.954,35.348,36.010999999999996
35.376,32.894,35.133,36.794000000000004,35.263000000000005,35.861
35.361,33.289,35.711,36.633,35.181,35.705999999999996
35.354,33.743,36.308,36.471,35.104,35.547
35.354,34.253,36.912,36.31,35.032,35.385999999999996
35.36,34.814,37.513000000000005,36.148,34.965,35.226
35.371,35.42,38.1,35.988,34.903,35.068000000000005
35.385,36.061,38.663000000000004,35.83,34.845,34.913000000000004
35.400999999999996,36.727,39.192,35.675,34.792,34.764
35.419000000000004,37.407,39.68,35.525,34.744,34.62
35.437,38.085,40.12,35.383,34.703,34.485
35.455999999999996,38.75,40.506,35.249,34.667,34.358000000000004
35.473,39.389,40.835,35.125,34.639,34.24
35.489000000000004,39.99,41.105,35.010999999999996,34.618,34.131
35.501999999999995,40.541,41.317,34.906,34.604,34.032
35.513000000000005,41.036,41.471000000000004,34.811,34.595,33.945
35.52,41.465,41.571000000000005,34.725,34.59,33.868
35.524,41.827,41.618,34.647,34.586999999999996,33.803000000000004
35.525,42.117,41.618,34.578,34.588,33.747
35.521,42.336000000000006,41.575,34.518,34.591,33.702
35.512,42.483999999999995,41.495,34.465,34.597,33.666
35.498000000000005,42.565,41.382,34.42,34.606,33.639
35.48,42.583,41.243,34.383,34.618,33.62
35.457,42.545,41.082,34.353,34.632,33.606
35.431,42.458,40.906,34.329,34.649,33.599000000000004
35.4,42.33,40.719,34.311,34.669000000000004,33.596
35.364000000000004,42.168,40.525,34.299,34.691,33.598
35.324,41.98,40.329,34.291,34.713,33.605
35.277,41.772,40.132,34.288000000000004,34.734,33.614000000000004
35.226,41.55,39.937,34.289,34.754,33.626999999999995
35.17,41.321000000000005,39.745,34.294000000000004,34.77,33.641
35.11,41.088,39.558,34.303000000000004,34.783,33.658
35.047,40.857,39.375,34.316,34.794000000000004,33.675
34.982,40.63,39.198,34.332,34.803000000000004,33.694
34.916,40.409,39.025999999999996,34.351,34.809,33.714
34.848,40.196999999999996,38.858000000000004,34.372,34.813,33.733000000000004
34.779,39.994,38.695,34.393,34.813,33.751999999999995
34.709,39.799,38.536,34.413000000000004,34.809,33.766999999999996
34.639,39.613,38.381,34.431999999999995,34.801,33.78
34.569,39.431999999999995,38.23,34.446999999999996,34.79,33.791
34.499,39.258,38.080999999999996,34.457,34.775,33.799
34.431,39.088,37.936,34.463,34.756,33.805
34.364000000000004,38.92,37.792,34.463,34.732,33.808
34.3,38.751999999999995,37.65,34.457,34.703,33.809
34.238,38.584,37.507,34.444,34.67,33.808
34.179,38.415,37.364000000000004,34.424,34.632,33.806
34.123000000000005,38.245,37.219,34.398,34.591,33.803000000000004
34.069,38.074,37.073,34.367,34.547,33.8
34.018,37.900999999999996,36.925,34.332,34.5,33.795
33.969,37.726,36.775,34.292,34.45,33.79
33.921,37.551,36.624,34.248000000000005,34.397,33.783
33.874,37.376,36.473,34.2,34.341,33.775
33.827,37.203,36.321999999999996,34.149,34.283,33.765
33.779,37.03,36.172,34.095,34.223,33.754
33.731,36.859,36.023,34.037,34.163000000000004,33.741
33.683,36.69,35.876999999999995,33.978,34.102,33.724000000000004
33.635999999999996,36.523,35.735,33.917,34.041,33.703
33.59,36.36,35.596,33.856,33.979,33.679
33.545,36.2,35.461,33.795,33.916,33.650999999999996
33.499,36.044000000000004,35.330999999999996,33.734,33.853,33.62
33.454,35.891,35.205999999999996,33.673,33.788000000000004,33.588
33.41,35.741,35.089,33.611,33.724000000000004,33.552
33.366,35.595,34.98,33.548,33.661,33.515
33.324,35.453,34.881,33.485,33.598,33.475
33.283,35.316,34.793,33.421,33.536,33.435
33.245,35.187,34.718,33.357,33.474000000000004,33.396
33.208,35.065,34.656,33.292,33.412,33.359
33.174,34.951,34.608000000000004,33.226,33.35,33.324
33.143,34.848,34.574,33.16,33.289,33.291
33.116,34.755,34.552,33.092,33.231,33.262
33.094,34.672,34.54,33.024,33.175,33.234
33.075,34.6,34.537,32.954,33.123000000000005,33.205999999999996
33.06,34.538000000000004,34.542,32.885,33.074,33.177
33.048,34.486,34.553000000000004,32.816,33.029,33.147
33.04,34.444,34.57,32.749,32.986999999999995,33.115
33.035,34.412,34.591,32.684,32.948,33.08
33.032,34.39,34.617,32.62,32.914,33.043
33.032,34.379,34.646,32.558,32.885999999999996,33.004
33.035,34.376999999999995,34.676,32.496,32.864000000000004,32.964
33.042,34.383,34.708,32.436,32.85,32.923
33.054,34.396,34.74,32.376999999999995,32.847,32.881
33.075,34.415,34.77,32.319,32.857,32.836999999999996
33.107,34.438,34.798,32.262,32.88,32.793
33.153,34.465,34.823,32.207,32.921,32.749
33.217,34.494,34.845,32.154,32.982,32.705
33.306,34.523,34.861,32.103,33.069,32.662
33.424,34.553000000000004,34.871,32.053000000000004,33.187,32.622
33.577,34.580999999999996,34.876,32.005,33.339,32.586999999999996
33.769,34.608000000000004,34.875,31.958000000000002,33.531,32.561
34.003,34.633,34.868,31.914,33.766,32.547
34.283,34.654,34.854,31.875,34.047,32.546
34.608000000000004,34.672,34.834,31.845,34.374,32.563
34.976,34.684,34.808,31.826,34.745,32.6
35.385999999999996,34.691,34.775,31.823,35.156,32.661
35.833,34.693000000000005,34.736,31.842,35.599000000000004,32.748000000000005
36.312,34.69,34.692,31.886999999999997,36.064,32.863
36.814,34.681,34.643,31.963,36.539,33.010999999999996
37.330999999999996,34.668,34.591,32.076,37.013000000000005,33.193000000000005
37.856,34.650999999999996,34.536,32.23,37.473,33.414
38.379,34.629,34.479,32.43,37.908,33.675
38.891,34.603,34.419000000000004,32.68,38.31,33.978
39.382,34.573,34.357,32.982,38.669000000000004,34.323
39.845,34.539,34.295,33.338,38.979,34.708
40.271,34.5,34.231,33.749,39.235,35.13
40.655,34.458,34.165,34.215,39.433,35.583
40.993,34.412,34.098,34.731,39.573,36.06
41.28,34.363,34.03,35.291,39.657,36.553000000000004
41.516000000000005,34.311,33.959,35.887,39.687,37.051
41.698,34.255,33.885999999999996,36.509,39.667,37.544000000000004
41.828,34.196,33.811,37.146,39.602,38.021
41.909,34.134,33.734,37.782,39.499,38.471
41.943999999999996,34.069,33.654,38.406,39.364000000000004,38.883
41.93600000000001,34.001999999999995,33.574,39.004,39.205,39.249
41.891000000000005,33.933,33.492,39.562,39.027,39.562
41.81100000000001,33.863,33.409,40.071,38.836999999999996,39.817
41.70399999999999,33.791,33.327,40.522,38.643,40.010999999999996
41.575,33.718,33.245,40.907,38.45,40.144
41.428000000000004,33.644,33.163000000000004,41.222,38.260999999999996,40.218
41.268,33.569,33.083,41.466,38.082,40.236
41.097,33.492,33.003,41.641000000000005,37.914,40.203
40.918,33.413000000000004,32.924,41.748000000000005,37.760999999999996,40.126
40.735,33.332,32.846,41.792,37.62,40.010999999999996
40.551,33.249,32.77,41.778,37.491,39.866
40.365,33.165,32.694,41.715,37.37,39.696
40.178000000000004,33.079,32.62,41.607,37.256,39.507
39.992,32.992,32.548,41.464,37.145,39.305
39.808,32.904,32.478,41.291000000000004,37.036,39.095
39.626,32.818000000000005,32.412,41.096000000000004,36.926,38.882
39.446999999999996,32.732,32.348,40.887,36.817,38.669000000000004
39.27,32.649,32.288000000000004,40.668,36.709,38.46
39.095,32.569,32.231,40.445,36.601,38.26
38.923,32.492,32.176,40.224000000000004,36.495,38.068000000000005
38.753,32.418,32.122,40.008,36.388000000000005,37.885999999999996
38.586,32.348,32.07,39.798,36.281,37.711999999999996
38.421,32.281,32.019,39.596,36.172,37.546
38.258,32.217,31.971,39.402,36.062,37.387
38.097,32.156,31.924,39.217,35.951,37.23
37.936,32.099000000000004,31.881,39.04,35.839,37.066
37.777,32.044000000000004,31.84,38.87,35.728,36.893
37.618,31.991,31.801,38.707,35.618,36.71
37.461,31.939,31.761999999999997,38.549,35.512,36.522
37.305,31.89,31.725,38.395,35.41,36.334
37.150999999999996,31.842,31.688000000000002,38.245,35.311,36.148
36.999,31.794,31.651999999999997,38.097,35.216,35.967
36.849000000000004,31.748,31.616999999999997,37.95,35.125,35.795
36.702,31.701999999999998,31.581999999999997,37.802,35.036,35.631
36.556999999999995,31.658,31.55,37.652,34.951,35.479
36.415,31.614,31.518,37.501,34.869,35.338
36.277,31.569000000000003,31.488000000000003,37.347,34.79,35.209
36.144,31.525,31.458000000000002,37.19,34.717,35.091
36.015,31.482,31.43,37.032,34.650999999999996,34.984
35.89,31.443,31.401999999999997,36.872,34.594,34.885999999999996
35.769,31.406999999999996,31.375999999999998,36.711,34.544000000000004,34.796
35.652,31.378,31.35,36.549,34.504,34.711999999999996
35.541,31.357,31.328000000000003,36.385999999999996,34.471,34.631
35.437,31.349,31.31,36.223,34.446999999999996,34.553000000000004
35.341,31.355999999999998,31.296,36.06,34.429,34.476
35.255,31.383000000000003,31.289,35.898,34.418,34.4
35.179,31.433000000000003,31.29,35.736,34.412,34.326
35.115,31.511999999999997,31.302,35.577,34.412,34.254
35.063,31.625999999999998,31.328000000000003,35.422,34.419000000000004,34.187
35.022,31.78,31.373,35.274,34.433,34.124
34.993,31.98,31.441,35.135999999999996,34.451,34.066
34.974000000000004,32.23,31.537,35.007,34.475,34.013000000000005
34.965,32.534,31.666999999999998,34.889,34.501999999999995,33.965
34.965,32.894,31.837,34.78,34.532,33.921
34.973,33.309,32.053000000000004,34.679,34.563,33.883
34.989000000000004,33.778,32.319,34.586999999999996,34.593,33.85
35.009,34.296,32.64,34.504,34.622,33.823
35.035,34.858000000000004,33.016999999999996,34.427,34.647,33.803000000000004
35.063,35.455,33.448,34.357,34.67,33.792
35.093,36.08,33.931999999999995,34.294000000000004,34.69,33.791
35.124,36.724000000000004,34.461,34.236999999999995,34.705999999999996,33.797
35.154,37.374,35.029,34.186,34.717,33.811
35.181,38.019,35.626,34.143,34.725,33.83
35.205999999999996,38.647,36.242,34.106,34.727,33.855
35.228,39.245,36.866,34.077,34.725,33.885
35.247,39.805,37.484,34.054,34.717,33.919000000000004
35.263000000000005,40.315,38.086,34.039,34.705999999999996,33.955
35.274,40.768,38.66,34.031,34.691,33.993
35.279,41.159,39.198,34.03,34.673,34.031
35.278,41.483999999999995,39.689,34.036,34.654,34.068000000000005
35.271,41.74100000000001,40.128,34.049,34.634,34.103
35.258,41.931000000000004,40.509,34.067,34.611999999999995,34.133
35.24,42.056000000000004,40.83,34.091,34.588,34.161
35.215,42.12,41.09,34.119,34.563,34.184
35.186,42.126999999999995,41.288000000000004,34.15,34.535,34.203
35.150999999999996,42.083999999999996,41.426,34.181,34.504,34.216
35.113,41.995,41.507,34.213,34.469,34.226
35.071,41.868,41.533,34.243,34.43,34.231
35.025999999999996,41.708999999999996,41.512,34.271,34.389,34.234
34.98,41.523,41.448,34.295,34.345,34.232
34.933,41.316,41.349,34.314,34.302,34.227
34.884,41.093999999999994,41.218999999999994,34.327,34.257,34.217
34.833,40.863,41.065,34.334,34.214,34.203
34.779,40.626999999999995,40.891999999999996,34.333,34.17,34.186
34.721,40.391,40.704,34.324,34.126,34.164
34.659,40.156,40.505,34.306999999999995,34.08,34.139
34.594,39.925,40.299,34.282,34.033,34.11
34.527,39.699,40.088,34.25,33.984,34.079
34.459,39.479,39.876,34.211999999999996,33.933,34.045
34.39,39.266,39.665,34.166,33.881,34.008
34.32,39.059,39.457,34.116,33.828,33.968
34.25,38.859,39.251999999999995,34.06,33.775,33.928000000000004
34.18,38.664,39.05,34.001,33.722,33.885999999999996
34.11,38.474000000000004,38.853,33.939,33.669000000000004,33.844
34.041,38.287,38.66,33.876,33.616,33.802
33.974000000000004,38.103,38.471,33.813,33.563,33.762
33.908,37.921,38.287,33.75,33.509,33.726
33.843,37.739000000000004,38.106,33.689,33.454,33.692
33.78,37.559,37.928000000000004,33.63,33.398,33.659
33.718,37.38,37.753,33.573,33.34,33.626999999999995
33.658,37.201,37.580999999999996,33.518,33.282,33.594
33.599000000000004,37.023,37.41,33.463,33.222,33.559
33.541,36.845,37.241,33.409,33.162,33.523
33.485,36.667,37.074,33.354,33.101,33.484
33.431,36.49,36.91,33.299,33.041,33.442
33.378,36.312,36.747,33.243,32.983000000000004,33.397
33.327,36.135999999999996,36.586,33.186,32.928000000000004,33.349000000000004
33.278,35.961,36.426,33.126999999999995,32.878,33.3
33.232,35.788000000000004,36.269,33.067,32.830999999999996,33.248000000000005
33.188,35.616,36.114000000000004,33.004,32.789,33.194
33.145,35.448,35.963,32.939,32.75,33.139
33.106,35.284,35.814,32.871,32.716,33.084
33.07,35.125,35.669000000000004,32.801,32.683,33.03
33.036,34.972,35.529,32.73,32.653,32.976
33.001,34.827,35.397,32.658,32.626,32.924
32.966,34.692,35.273,32.586,32.601,32.876
32.931,34.569,35.157,32.514,32.58,32.834
32.898,34.458,35.049,32.443000000000005,32.564,32.797
32.866,34.361,34.946999999999996,32.373000000000005,32.556,32.768
32.836,34.278,34.851,32.305,32.556999999999995,32.748000000000005
32.808,34.21,34.760999999999996,32.24,32.573,32.74
32.783,34.155,34.676,32.177,32.606,32.746
32.763000000000005,34.114000000000004,34.598,32.115,32.658,32.768
32.747,34.085,34.525,32.056999999999995,32.733000000000004,32.809
32.735,34.069,34.459,32.001999999999995,32.835,32.872
32.727,34.064,34.400999999999996,31.949,32.97,32.96
32.72,34.071999999999996,34.35,31.899,33.141999999999996,33.077
32.714,34.09,34.308,31.851999999999997,33.356,33.226
32.708,34.119,34.275,31.808000000000003,33.611999999999995,33.411
32.702,34.156,34.253,31.768,33.913000000000004,33.635
32.696999999999996,34.2,34.241,31.732,34.257,33.900999999999996
32.693000000000005,34.249,34.239000000000004,31.703000000000003,34.641999999999996,34.209
32.693000000000005,34.301,34.248000000000005,31.683000000000003,35.062,34.562
32.698,34.355,34.266999999999996,31.674,35.51,34.957
32.711,34.409,34.296,31.678,35.978,35.39
32.736,34.464,34.333,31.698,36.455999999999996,35.858000000000004
32.778,34.518,34.376,31.739,36.934,36.35
32.84,34.568000000000005,34.424,31.805,37.399,36.857
32.927,34.615,34.476,31.9,37.841,37.369
33.044000000000004,34.657,34.531,32.03,38.251,37.871
33.195,34.693000000000005,34.586999999999996,32.198,38.62,38.354
33.385,34.722,34.641999999999996,32.409,38.942,38.806999999999995
33.618,34.745,34.695,32.666,39.211,39.22
33.896,34.762,34.744,32.972,39.423,39.584
34.222,34.772,34.788000000000004,33.33,39.576,39.894
34.595,34.774,34.826,33.74,39.671,40.145
35.010999999999996,34.771,34.857,34.202,39.708,40.336
35.467,34.76,34.881,34.714,39.692,40.465
35.955999999999996,34.744,34.896,35.269,39.629,40.535
36.472,34.72,34.903,35.861,39.525999999999996,40.552
37.007,34.691,34.900999999999996,36.479,39.389,40.518
37.55,34.656,34.889,37.113,39.227,40.439
38.093,34.617,34.87,37.75,39.047,40.32
38.626999999999995,34.575,34.842,38.376,38.855,40.168
39.141,34.53,34.806999999999995,38.978,38.657,39.989000000000004
39.626999999999995,34.482,34.764,39.543,38.457,39.792
40.079,34.431999999999995,34.715,40.06,38.260999999999996,39.582
40.488,34.379,34.66,40.521,38.071,39.364000000000004
40.85,34.324,34.603,40.918,37.887,39.144
41.16,34.266,34.543,41.247,37.711999999999996,38.924
41.417,34.204,34.481,41.505,37.546,38.709
41.618,34.139,34.419000000000004,41.691,37.39,38.5
41.763999999999996,34.071,34.356,41.808,37.245,38.298
41.856,33.999,34.293,41.858999999999995,37.108000000000004,38.106
41.897,33.926,34.23,41.85,36.98,37.923
41.893,33.851,34.166,41.786,36.86,37.75
41.846000000000004,33.775999999999996,34.101,41.677,36.746,37.584
41.762,33.7,34.034,41.528999999999996,36.637,37.423
41.647,33.625,33.966,41.351000000000006,36.531,37.266
41.504,33.55,33.896,41.151,36.427,37.111999999999995
41.339,33.476,33.825,40.935,36.324,36.961999999999996
41.158,33.403,33.753,40.709,36.221,36.812
40.963,33.330999999999996,33.68,40.479,36.118,36.663000000000004
40.759,33.26,33.608000000000004,40.249,36.015,36.513000000000005
40.55,33.189,33.535,40.022,35.912,36.364000000000004
40.336999999999996,33.12,33.461999999999996,39.799,35.809,36.215
40.123000000000005,33.053000000000004,33.388000000000005,39.582,35.704,36.065
39.911,32.986,33.314,39.373000000000005,35.599000000000004,35.914
39.7,32.921,33.238,39.171,35.491,35.763000000000005
39.49,32.856,33.161,38.977,35.383,35.611999999999995
39.284,32.793,33.083,38.79,35.275999999999996,35.461999999999996
39.082,32.73,33.006,38.61,35.17,35.315
38.883,32.669000000000004,32.93,38.436,35.067,35.171
38.69,32.609,32.856,38.264,34.969,35.032
38.501,32.551,32.785,38.095,34.876,34.9
38.317,32.494,32.716,37.926,34.789,34.775999999999996
38.138000000000005,32.439,32.648,37.757,34.709,34.658
37.963,32.385999999999996,32.583,37.589,34.635,34.55
37.793,32.334,32.519,37.42,34.568000000000005,34.45
37.625,32.284,32.457,37.251,34.507,34.361
37.46,32.235,32.397,37.080999999999996,34.454,34.283
37.297,32.187,32.339,36.911,34.407,34.215
37.135,32.139,32.286,36.74,34.368,34.157
36.975,32.092,32.236,36.565,34.338,34.108000000000004
36.817,32.046,32.19,36.383,34.316,34.069
36.66,32.0,32.148,36.195,34.303000000000004,34.039
36.505,31.955,32.11,36.001999999999995,34.299,34.016
36.352,31.912,32.074,35.808,34.302,34.001
36.202,31.871,32.041,35.616,34.314,33.992
36.056,31.831,32.009,35.429,34.330999999999996,33.99
35.915,31.795,31.978,35.251,34.355,33.994
35.78,31.761,31.948,35.085,34.382,34.003
35.650999999999996,31.732,31.919,34.931,34.414,34.016999999999996
35.527,31.709,31.891,34.79,34.45,34.035
35.411,31.693,31.863000000000003,34.663000000000004,34.488,34.054
35.302,31.688000000000002,31.836,34.55,34.527,34.073
35.203,31.699,31.809,34.45,34.566,34.093
35.114000000000004,31.729,31.781999999999996,34.363,34.603,34.111999999999995
35.035,31.785,31.756,34.288000000000004,34.637,34.133
34.967,31.872,31.729,34.224000000000004,34.667,34.153
34.908,31.996,31.704,34.172,34.693000000000005,34.173
34.86,32.163000000000004,31.682,34.129,34.714,34.193000000000005
34.823,32.379,31.663,34.097,34.729,34.211
34.798,32.645,31.651,34.074,34.738,34.229
34.786,32.967,31.649,34.06,34.741,34.244
34.784,33.344,31.660999999999998,34.054,34.74,34.256
34.793,33.775999999999996,31.689,34.056999999999995,34.735,34.265
34.811,34.259,31.74,34.068000000000005,34.728,34.27
34.836,34.788000000000004,31.819000000000003,34.086999999999996,34.719,34.272
34.869,35.357,31.93,34.11,34.707,34.271
34.909,35.957,32.079,34.137,34.693000000000005,34.266999999999996
34.953,36.579,32.271,34.167,34.676,34.26
34.999,37.213,32.510999999999996,34.2,34.655,34.249
35.046,37.847,32.801,34.234,34.631,34.234
35.091,38.47,33.144,34.268,34.602,34.215
35.134,39.071,33.539,34.302,34.569,34.192
35.174,39.638000000000005,33.986,34.334,34.532,34.164
35.211,40.161,34.479,34.365,34.49,34.134
35.244,40.632,35.013000000000005,34.391999999999996,34.445,34.1
35.271,41.044,35.58,34.416,34.397,34.064
35.293,41.393,36.169000000000004,34.434,34.347,34.025999999999996
35.309,41.676,36.771,34.448,34.293,33.986999999999995
35.318000000000005,41.893,37.373000000000005,34.455999999999996,34.238,33.946
35.321,42.044,37.966,34.459,34.181,33.903
35.317,42.131,38.537,34.458,34.124,33.858000000000004
35.306,42.16,39.077,34.452,34.066,33.813
35.287,42.135,39.577,34.441,34.009,33.766
35.262,42.062,40.027,34.425,33.952,33.719
35.23,41.948,40.423,34.404,33.898,33.671
35.193000000000005,41.801,40.759,34.379,33.847,33.624
35.150999999999996,41.625,41.034,34.349000000000004,33.799,33.577
35.104,41.428999999999995,41.248000000000005,34.314,33.753,33.532
35.053000000000004,41.216,41.402,34.273,33.71,33.486999999999995
34.998000000000005,40.994,41.498000000000005,34.229,33.668,33.441
34.94,40.766,41.538999999999994,34.18,33.626999999999995,33.394
34.88,40.537,41.531000000000006,34.128,33.586,33.347
34.819,40.309,41.48,34.073,33.546,33.299
34.756,40.083,41.391000000000005,34.016,33.506,33.251
34.692,39.861,41.272,33.958,33.466,33.204
34.628,39.643,41.126999999999995,33.9,33.426,33.157
34.563,39.43,40.964,33.84,33.384,33.11
34.499,39.221,40.787,33.779,33.34,33.064
34.435,39.016999999999996,40.6,33.718,33.294000000000004,33.016999999999996
34.373000000000005,38.817,40.407,33.657,33.245,32.971
34.311,38.621,40.209,33.596,33.194,32.925
34.249,38.428000000000004,40.010999999999996,33.536,33.141,32.882
34.186,38.236999999999995,39.813,33.475,33.088,32.841
34.123000000000005,38.047,39.616,33.414,33.035,32.802
34.058,37.86,39.422,33.354,32.984,32.766999999999996
33.992,37.673,39.229,33.295,32.935,32.735
33.926,37.486999999999995,39.037,33.236,32.888000000000005,32.709
33.858000000000004,37.3,38.846,33.176,32.842,32.691
33.789,37.111999999999995,38.655,33.115,32.798,32.684
33.719,36.924,38.464,33.053000000000004,32.755,32.693000000000005
33.650999999999996,36.736,38.274,32.989000000000004,32.715,32.72
33.585,36.548,38.084,32.922,32.679,32.771
33.52,36.36,37.896,32.854,32.648,32.849000000000004
33.455999999999996,36.174,37.708,32.784,32.624,32.957
33.395,35.991,37.523,32.711999999999996,32.611,33.097
33.335,35.811,37.338,32.638000000000005,32.608000000000004,33.273
33.277,35.637,37.154,32.563,32.62,33.49
33.222,35.468,36.971,32.488,32.647,33.75
33.17,35.306999999999995,36.789,32.412,32.695,34.056999999999995
33.121,35.152,36.608000000000004,32.339,32.765,34.412
33.075,35.006,36.429,32.269,32.86,34.814
33.031,34.869,36.251999999999995,32.205,32.984,35.26
32.99,34.743,36.076,32.146,33.14,35.744
32.951,34.626999999999995,35.903,32.094,33.330999999999996,36.256
32.914,34.523,35.734,32.049,33.562,36.786
32.879,34.431,35.569,32.010999999999996,33.833,37.323
32.845,34.353,35.408,31.979,34.147,37.855
32.811,34.288000000000004,35.253,31.951999999999998,34.501,38.371
32.779,34.236999999999995,35.106,31.93,34.893,38.857
32.747,34.199,34.966,31.913,35.318000000000005,39.306
32.717,34.174,34.833,31.9,35.769,39.707
32.688,34.162,34.71,31.891,36.238,40.056
32.66,34.16,34.597,31.889,36.714,40.347
32.635,34.168,34.495,31.896,37.187,40.576
32.611999999999995,34.185,34.404,31.915,37.645,40.743
32.591,34.21,34.326,31.95,38.077,40.847
32.574,34.24,34.260999999999996,32.006,38.472,40.893
32.56,34.275999999999996,34.208,32.089,38.821999999999996,40.882
32.55,34.316,34.169000000000004,32.203,39.119,40.821999999999996
32.546,34.359,34.141999999999996,32.356,39.361,40.717
32.547,34.405,34.128,32.553000000000004,39.544000000000004,40.578
32.556,34.453,34.125,32.8,39.668,40.409
32.574,34.501999999999995,34.133,33.1,39.736,40.219
32.605,34.552,34.150999999999996,33.457,39.751999999999995,40.012
32.652,34.601,34.178000000000004,33.87,39.72,39.794000000000004
32.72,34.649,34.213,34.339,39.647,39.571999999999996
32.814,34.694,34.254,34.859,39.539,39.348
32.94,34.734,34.301,35.424,39.404,39.126999999999995
33.102,34.77,34.353,36.024,39.248000000000005,38.91
33.306,34.8,34.407,36.649,39.075,38.7
33.556,34.825,34.461999999999996,37.285,38.891,38.499
33.853,34.844,34.516999999999996,37.92,38.7,38.306999999999995
34.198,34.856,34.57,38.541,38.508,38.126
34.591,34.86,34.62,39.134,38.316,37.955
35.029,34.857,34.667,39.687,38.128,37.797
35.507,34.845,34.71,40.19,37.946,37.649
36.02,34.827,34.749,40.635,37.771,37.51
36.559,34.802,34.785,41.016000000000005,37.605,37.376
37.116,34.771,34.816,41.328,37.448,37.244
37.679,34.734,34.843,41.568999999999996,37.3,37.115
38.239000000000004,34.692,34.864000000000004,41.74,37.161,36.985
38.786,34.645,34.88,41.843,37.03,36.855
39.309,34.593,34.89,41.883,36.906,36.722
39.8,34.536,34.893,41.865,36.787,36.586999999999996
40.251,34.475,34.89,41.797,36.671,36.449
40.654,34.409,34.879,41.684,36.558,36.311
40.997,34.34,34.861,41.536,36.445,36.171
41.273,34.27,34.836,41.358999999999995,36.334,36.03
41.481,34.198,34.805,41.162,36.224000000000004,35.89
41.626000000000005,34.125,34.766,40.951,36.115,35.749
41.714,34.052,34.722,40.731,36.007,35.608000000000004
41.75,33.98,34.671,40.506,35.9,35.468
41.743,33.907,34.614000000000004,40.282,35.794000000000004,35.330999999999996
41.699,33.834,34.553000000000004,40.061,35.688,35.196999999999996
41.625,33.760999999999996,34.488,39.844,35.583,35.069
41.528999999999996,33.689,34.42,39.634,35.478,34.948
41.413999999999994,33.616,34.35,39.431,35.374,34.834
41.287,33.544000000000004,34.278,39.236,35.27,34.726
41.15,33.472,34.205,39.049,35.166,34.626999999999995
41.006,33.398,34.132,38.869,35.064,34.538000000000004
40.857,33.325,34.056999999999995,38.693000000000005,34.964,34.457
40.704,33.25,33.983000000000004,38.521,34.868,34.387
40.547,33.175,33.908,38.352,34.777,34.326
40.385999999999996,33.1,33.832,38.184,34.693000000000005,34.274
40.22,33.025999999999996,33.756,38.02,34.614000000000004,34.233000000000004
40.051,32.953,33.679,37.864000000000004,34.543,34.2
39.878,32.881,33.602,37.717,34.478,34.176
39.703,32.811,33.524,37.577,34.421,34.158
39.525999999999996,32.743,33.448,37.442,34.372,34.148
39.348,32.675,33.372,37.308,34.330999999999996,34.143
39.168,32.609,33.298,37.173,34.3,34.143
38.986,32.544000000000004,33.224000000000004,37.032,34.279,34.147
38.804,32.48,33.152,36.883,34.266999999999996,34.156
38.623000000000005,32.417,33.079,36.725,34.264,34.168
38.442,32.355,33.007,36.559,34.269,34.181
38.262,32.293,32.935,36.384,34.28,34.195
38.084,32.232,32.864000000000004,36.203,34.298,34.207
37.908,32.171,32.795,36.016999999999996,34.319,34.217
37.733000000000004,32.111999999999995,32.729,35.829,34.342,34.227
37.561,32.055,32.664,35.641999999999996,34.367,34.236
37.391,32.0,32.602,35.457,34.391999999999996,34.242
37.222,31.948,32.543,35.277,34.419000000000004,34.246
37.055,31.899,32.485,35.104,34.446999999999996,34.248000000000005
36.889,31.853,32.429,34.941,34.476,34.248000000000005
36.724000000000004,31.811999999999998,32.374,34.79,34.507,34.246
36.561,31.774,32.32,34.652,34.538000000000004,34.243
36.4,31.741999999999997,32.266,34.528,34.57,34.238
36.242,31.715,32.214,34.418,34.601,34.232
36.088,31.695999999999998,32.163000000000004,34.324,34.631,34.225
35.939,31.685,32.113,34.244,34.659,34.216
35.796,31.685,32.064,34.179,34.685,34.207
35.66,31.699,32.016,34.13,34.709,34.196999999999996
35.533,31.729,31.969,34.094,34.729,34.185
35.414,31.779,31.923000000000002,34.071999999999996,34.745,34.172
35.304,31.855999999999998,31.877,34.061,34.754,34.157
35.204,31.963,31.833000000000002,34.062,34.757,34.139
35.115,32.109,31.79,34.07,34.753,34.117
35.038000000000004,32.298,31.75,34.084,34.741,34.092
34.972,32.538000000000004,31.714000000000002,34.103,34.723,34.063
34.917,32.830999999999996,31.683000000000003,34.126,34.699,34.029
34.874,33.179,31.658,34.150999999999996,34.669000000000004,33.992
34.84,33.586,31.642,34.179,34.635,33.951
34.816,34.048,31.636999999999997,34.207,34.597,33.908
34.803000000000004,34.565,31.646,34.236,34.555,33.861
34.799,35.129,31.674,34.263000000000005,34.51,33.806
34.803000000000004,35.734,31.725,34.289,34.461999999999996,33.744
34.815,36.37,31.804000000000002,34.312,34.412,33.676
34.834,37.025999999999996,31.916999999999998,34.332,34.361,33.606
34.859,37.69,32.069,34.349000000000004,34.309,33.536
34.888000000000005,38.351,32.266,34.364000000000004,34.257,33.468
34.922,38.994,32.510999999999996,34.376,34.204,33.403
34.959,39.609,32.81,34.385,34.150999999999996,33.344
34.998000000000005,40.183,33.163000000000004,34.391,34.097,33.292
35.04,40.705,33.571,34.394,34.041,33.246
35.09,41.168,34.032,34.394,33.982,33.205999999999996
35.146,41.566,34.54,34.389,33.922,33.171
35.207,41.896,35.089,34.38,33.861999999999995,33.143
35.268,42.155,35.67,34.366,33.802,33.118
35.326,42.345,36.274,34.348,33.743,33.097
35.376,42.468999999999994,36.889,34.326,33.686,33.077
35.415,42.528999999999996,37.501999999999995,34.301,33.633,33.056
35.441,42.53,38.102,34.272,33.580999999999996,33.034
35.453,42.479,38.677,34.24,33.531,33.010999999999996
35.45,42.381,39.216,34.204,33.482,32.984
35.434,42.243,39.71,34.164,33.433,32.955
35.403,42.074,40.153,34.121,33.384,32.926
35.359,41.88,40.54,34.075,33.336,32.897
35.302,41.667,40.868,34.025,33.288000000000004,32.874
35.235,41.443000000000005,41.136,33.972,33.242,32.857
35.161,41.213,41.343999999999994,33.915,33.196,32.851
35.080999999999996,40.981,41.495,33.856,33.149,32.86
35.0,40.751999999999995,41.591,33.795,33.103,32.889
34.918,40.528,41.636,33.731,33.056,32.942
34.835,40.311,41.637,33.665,33.008,33.024
34.751999999999995,40.104,41.597,33.596,32.959,33.14
34.67,39.905,41.523999999999994,33.527,32.912,33.296
34.59,39.715,41.423,33.457,32.865,33.498000000000005
34.510999999999996,39.531,41.299,33.389,32.82,33.747
34.433,39.354,41.156000000000006,33.321,32.777,34.049
34.358000000000004,39.181999999999995,40.998999999999995,33.257,32.736999999999995,34.403
34.284,39.016,40.830999999999996,33.195,32.7,34.808
34.211,38.853,40.654,33.135999999999996,32.666,35.263000000000005
34.139,38.693000000000005,40.47,33.08,32.637,35.76
34.067,38.534,40.282,33.025,32.611,36.291
33.996,38.375,40.089,32.971,32.59,36.846
33.925,38.216,39.891999999999996,32.917,32.575,37.413000000000004
33.854,38.055,39.693000000000005,32.863,32.566,37.978
33.783,37.893,39.492,32.809,32.566,38.53
33.711,37.729,39.292,32.754,32.578,39.053000000000004
33.64,37.562,39.094,32.698,32.605,39.537
33.569,37.393,38.898,32.641999999999996,32.653,39.971
33.499,37.221,38.705999999999996,32.585,32.725,40.346
33.431,37.048,38.52,32.527,32.826,40.657
33.364000000000004,36.875,38.341,32.469,32.958,40.900999999999996
33.298,36.7,38.17,32.412,33.125,41.076
33.233000000000004,36.524,38.004,32.355,33.329,41.187
33.17,36.347,37.843,32.299,33.574,41.236000000000004
33.11,36.172,37.687,32.246,33.861,41.229
33.052,35.999,37.532,32.194,34.192,41.173
32.995,35.832,37.378,32.144,34.566,41.074
32.941,35.67,37.224000000000004,32.097,34.98,40.94
32.888000000000005,35.515,37.07,32.053000000000004,35.431,40.779
32.836,35.37,36.917,32.012,35.91,40.597
32.784,35.235,36.762,31.976,36.406,40.399
32.734,35.111,36.607,31.945999999999998,36.909,40.191
32.685,34.998000000000005,36.451,31.924,37.406,39.976
32.638000000000005,34.897,36.295,31.913,37.885,39.760999999999996
32.592,34.806999999999995,36.138000000000005,31.915,38.332,39.546
32.549,34.729,35.983000000000004,31.936,38.736999999999995,39.336
32.507,34.663000000000004,35.827,31.98,39.092,39.132
32.468,34.608000000000004,35.673,32.053000000000004,39.39,38.936
32.431999999999995,34.566,35.521,32.161,39.626999999999995,38.749
32.397,34.535,35.372,32.31,39.801,38.57
32.364000000000004,34.515,35.227,32.504,39.916,38.398
32.332,34.505,35.089,32.748000000000005,39.973,38.233000000000004
32.301,34.503,34.958,33.047,39.979,38.074
32.271,34.510999999999996,34.836999999999996,33.403,39.94,37.921
32.242,34.525999999999996,34.728,33.819,39.861999999999995,37.775
32.216,34.547,34.631,34.293,39.751,37.635999999999996
32.193000000000005,34.575,34.547,34.821,39.611999999999995,37.505
32.173,34.607,34.476,35.397,39.453,37.381
32.157,34.643,34.418,36.014,39.278,37.262
32.144,34.683,34.373000000000005,36.66,39.091,37.146
32.135999999999996,34.724000000000004,34.341,37.321,38.898,37.03
32.133,34.766,34.321999999999996,37.985,38.703,36.911
32.139,34.806,34.313,38.635,38.51,36.789
32.155,34.845,34.316,39.258,38.323,36.661
32.184,34.879,34.328,39.841,38.145,36.527
32.23,34.91,34.349000000000004,40.371,37.977,36.387
32.298,34.937,34.376999999999995,40.84,37.821,36.243
32.391999999999996,34.958,34.409,41.239,37.676,36.098
32.516999999999996,34.974000000000004,34.442,41.566,37.54,35.954
32.68,34.983000000000004,34.475,41.818000000000005,37.413000000000004,35.813
32.883,34.986,34.508,41.997,37.291,35.676
33.133,34.982,34.539,42.106,37.176,35.544000000000004
33.431999999999995,34.971,34.569,42.148,37.064,35.418
33.782,34.954,34.6,42.129,36.955999999999996,35.299
34.184,34.93,34.63,42.058,36.85,35.189
34.635,34.899,34.66,41.941,36.747,35.088
35.132,34.863,34.687,41.788999999999994,36.644,34.997
35.668,34.821,34.711999999999996,41.608000000000004,36.542,34.917
36.236,34.775,34.735,41.405,36.441,34.847
36.827,34.725,34.754,41.18899999999999,36.339,34.787
37.429,34.673,34.77,40.965,36.236,34.735
38.032,34.617,34.781,40.738,36.132,34.691
38.625,34.558,34.788000000000004,40.513000000000005,36.025999999999996,34.654
39.195,34.497,34.789,40.291,35.918,34.622
39.733000000000004,34.431999999999995,34.785,40.076,35.808,34.596
40.231,34.364000000000004,34.774,39.868,35.696999999999996,34.575
40.681,34.293,34.757,39.668,35.586999999999996,34.561
41.078,34.218,34.733000000000004,39.476,35.477,34.552
41.417,34.139,34.704,39.291,35.37,34.549
41.698,34.059,34.669000000000004,39.111,35.265,34.55
41.92,33.978,34.628,38.936,35.163000000000004,34.556
42.083999999999996,33.897,34.582,38.764,35.064,34.566
42.192,33.815,34.532,38.595,34.97,34.58
42.248000000000005,33.735,34.478,38.429,34.882,34.596
42.257,33.656,34.42,38.264,34.801,34.616
42.224,33.577,34.359,38.102,34.729,34.637
42.153,33.499,34.295,37.942,34.666,34.659
42.05,33.421,34.228,37.785,34.613,34.68
41.922,33.342,34.158,37.631,34.568000000000005,34.696999999999996
41.773,33.263000000000005,34.084,37.478,34.532,34.711
41.607,33.184,34.007,37.327,34.506,34.722
41.428999999999995,33.105,33.927,37.176,34.489000000000004,34.728
41.243,33.028,33.845,37.025999999999996,34.479,34.729
41.051,32.951,33.763000000000005,36.875,34.477,34.726
40.857,32.876999999999995,33.679,36.725,34.482,34.719
40.662,32.806,33.594,36.574,34.493,34.708
40.47,32.739000000000004,33.509,36.424,34.509,34.693000000000005
40.282,32.676,33.424,36.274,34.531,34.674
40.098,32.617,33.339,36.126,34.556,34.652
39.918,32.561,33.255,35.98,34.582,34.628
39.744,32.508,33.172,35.836999999999996,34.61,34.601
39.575,32.455999999999996,33.09,35.696,34.638000000000005,34.573
39.412,32.405,33.01,35.56,34.666,34.543
39.251999999999995,32.354,32.931999999999995,35.429,34.695,34.510999999999996
39.096,32.303000000000004,32.857,35.303000000000004,34.723,34.479
38.943000000000005,32.25,32.786,35.183,34.75,34.443000000000005
38.791,32.196,32.72,35.07,34.775,34.405
38.64,32.141,32.658,34.964,34.798,34.363
38.491,32.084,32.599000000000004,34.864000000000004,34.816,34.318000000000005
38.342,32.025999999999996,32.543,34.77,34.83,34.271
38.195,31.968000000000004,32.489000000000004,34.683,34.839,34.222
38.047,31.910999999999998,32.435,34.603,34.843,34.171
37.898,31.855,32.382,34.53,34.841,34.117
37.748000000000005,31.8,32.33,34.466,34.835,34.06
37.596,31.748,32.278,34.41,34.825,34.001
37.444,31.698,32.226,34.363,34.81,33.942
37.291,31.651,32.173,34.324,34.793,33.882
37.138000000000005,31.608,32.121,34.293,34.771,33.823
36.983000000000004,31.57,32.069,34.271,34.744,33.764
36.829,31.535999999999998,32.016999999999996,34.257,34.711999999999996,33.705999999999996
36.677,31.508000000000003,31.965999999999998,34.251999999999995,34.675,33.649
36.527,31.486,31.915,34.253,34.634,33.592
36.38,31.47,31.864,34.262,34.59,33.536
36.239000000000004,31.464000000000002,31.814,34.278,34.543,33.481
36.103,31.47,31.765,34.3,34.495,33.427
35.97,31.493000000000002,31.718000000000004,34.327,34.445,33.373000000000005
35.841,31.535999999999998,31.673000000000002,34.357,34.393,33.318000000000005
35.718,31.605999999999998,31.631,34.39,34.339,33.264
35.603,31.708000000000002,31.592,34.422,34.283,33.209
35.498000000000005,31.85,31.558000000000003,34.454,34.227,33.156
35.405,32.038000000000004,31.528000000000002,34.484,34.17,33.103
35.325,32.275,31.505,34.51,34.114000000000004,33.053000000000004
35.257,32.568000000000005,31.49,34.532,34.056999999999995,33.004
35.203,32.919000000000004,31.486,34.548,34.0,32.96
35.162,33.328,31.496,34.558,33.943000000000005,32.921
35.134,33.795,31.524,34.561,33.885,32.887
35.117,34.318000000000005,31.575,34.556,33.828,32.858000000000004
35.111999999999995,34.891999999999996,31.654,34.542,33.772,32.836
35.117,35.51,31.767,34.522,33.717,32.826
35.13,36.164,31.92,34.494,33.664,32.829
35.15,36.843,32.119,34.459,33.613,32.848
35.175,37.533,32.369,34.417,33.563,32.89
35.204,38.223,32.672,34.368,33.514,32.955999999999996
35.233000000000004,38.899,33.032,34.314,33.465,33.053000000000004
35.264,39.548,33.448,34.255,33.418,33.187
35.294000000000004,40.157,33.918,34.192,33.371,33.364000000000004
35.324,40.715,34.438,34.125,33.324,33.59
35.353,41.214,35.001,34.056,33.275,33.87
35.38,41.646,35.598,33.986999999999995,33.227,34.207
35.405,42.008,36.219,33.919000000000004,33.179,34.601
35.427,42.29600000000001,36.851,33.853,33.131,35.049
35.445,42.511,37.483000000000004,33.789,33.085,35.547
35.458,42.656000000000006,38.102,33.727,33.038000000000004,36.088
35.466,42.733999999999995,38.698,33.667,32.993,36.661
35.468,42.751000000000005,39.26,33.608000000000004,32.949,37.251999999999995
35.465,42.711999999999996,39.778,33.55,32.906,37.846
35.455,42.625,40.245,33.493,32.864000000000004,38.429
35.439,42.496,40.656,33.436,32.823,38.985
35.417,42.333,41.007,33.38,32.783,39.501
35.388000000000005,42.143,41.29600000000001,33.323,32.744,39.967
35.353,41.931999999999995,41.521,33.265,32.707,40.373000000000005
35.312,41.708,41.685,33.205999999999996,32.671,40.711999999999996
35.266,41.476000000000006,41.788999999999994,33.145,32.635,40.981
35.214,41.239,41.839,33.080999999999996,32.601,41.178000000000004
35.157,41.003,41.838,33.015,32.567,41.303999999999995
35.096,40.77,41.792,32.946999999999996,32.536,41.361999999999995
35.03,40.543,41.706,32.876999999999995,32.507,41.358999999999995
34.961,40.321999999999996,41.586999999999996,32.805,32.483000000000004,41.302
34.889,40.105,41.441,32.733000000000004,32.466,41.199
34.815,39.894,41.273,32.662,32.46,41.056999999999995
34.738,39.69,41.088,32.593,32.466,40.884
34.658,39.493,40.891,32.525999999999996,32.486999999999995,40.688
34.575,39.304,40.689,32.461,32.528,40.476
34.489000000000004,39.124,40.483000000000004,32.399,32.591,40.255
34.400999999999996,38.952,40.278,32.339,32.681999999999995,40.031
34.311,38.788000000000004,40.076,32.282,32.804,39.808
34.22,38.631,39.879,32.226,32.96,39.589
34.128,38.481,39.687,32.172,33.153,39.376999999999995
34.036,38.336999999999996,39.501999999999995,32.118,33.385999999999996,39.174
33.942,38.196,39.321999999999996,32.064,33.663000000000004,38.979
33.848,38.06,39.149,32.01,33.985,38.795
33.755,37.925,38.98,31.955,34.351,38.623000000000005
33.665,37.79,38.815,31.901999999999997,34.759,38.461
33.576,37.655,38.652,31.851,35.203,38.309
33.49,37.516,38.491,31.804000000000002,35.676,38.165
33.405,37.375,38.329,31.761999999999997,36.169000000000004,38.025999999999996
33.321,37.23,38.167,31.728,36.67,37.893
33.238,37.082,38.006,31.703000000000003,37.168,37.764
33.156,36.931,37.845,31.691,37.65,37.637
33.076,36.778,37.685,31.695,38.107,37.51
33.007,36.623000000000005,37.525999999999996,31.718000000000004,38.525999999999996,37.384
32.949,36.467,37.369,31.766,38.9,37.259
32.904,36.313,37.215,31.842,39.221,37.134
32.868,36.16,37.063,31.951999999999998,39.485,37.009
32.839,36.010999999999996,36.913000000000004,32.103,39.69,36.884
32.814,35.867,36.766,32.298,39.836,36.758
32.789,35.73,36.62,32.543,39.925,36.632
32.760999999999996,35.601,36.475,32.841,39.96,36.504
32.73,35.479,36.330999999999996,33.194,39.946,36.375
32.692,35.367,36.185,33.605,39.889,36.244
32.647,35.264,36.039,34.074,39.793,36.113
32.596,35.169000000000004,35.893,34.598,39.666,35.982
32.538000000000004,35.083,35.748000000000005,35.171,39.514,35.853
32.475,35.005,35.607,35.785,39.345,35.726
32.408,34.937,35.47,36.428000000000004,39.163000000000004,35.601
32.341,34.878,35.338,37.089,38.975,35.48
32.272,34.829,35.211999999999996,37.751999999999995,38.784,35.363
32.205,34.789,35.094,38.405,38.595,35.253
32.139,34.76,34.985,39.032,38.41,35.148
32.076,34.74,34.885,39.62,38.231,35.05
32.019,34.728,34.793,40.16,38.06,34.958
31.967,34.725,34.71,40.641,37.897,34.875
31.921999999999997,34.729,34.635,41.056999999999995,37.741,34.799
31.884,34.74,34.57,41.402,37.594,34.732
31.851999999999997,34.756,34.513000000000005,41.674,37.455,34.674
31.825,34.775999999999996,34.466,41.873000000000005,37.323,34.625
31.804000000000002,34.798,34.43,42.001999999999995,37.198,34.584
31.787,34.821999999999996,34.404,42.059,37.079,34.55
31.775,34.847,34.389,42.051,36.964,34.522
31.766,34.872,34.385,41.983999999999995,36.852,34.5
31.761999999999997,34.896,34.389,41.867,36.741,34.484
31.761,34.919000000000004,34.402,41.71,36.631,34.473
31.766,34.94,34.422,41.523,36.521,34.466
31.778000000000002,34.957,34.448,41.316,36.41,34.461999999999996
31.798000000000002,34.971,34.477,41.097,36.3,34.461
31.831,34.98,34.51,40.872,36.189,34.461
31.879,34.985,34.545,40.648,36.079,34.461999999999996
31.945999999999998,34.984,34.582,40.428000000000004,35.969,34.463
32.038000000000004,34.977,34.62,40.214,35.86,34.464
32.161,34.965,34.658,40.008,35.75,34.465
32.321,34.948,34.695,39.812,35.641,34.466
32.524,34.927,34.73,39.624,35.53,34.467
32.775,34.9,34.762,39.446,35.42,34.469
33.079,34.869,34.789,39.275,35.309,34.472
33.435,34.833,34.811,39.111,35.201,34.473
33.843,34.791,34.825,38.952,35.095,34.473
34.302,34.745,34.832,38.797,34.993,34.471
34.809,34.692,34.830999999999996,38.645,34.898,34.467
35.358000000000004,34.634,34.82,38.495,34.809,34.461
35.94,34.569,34.8,38.346,34.729,34.453
36.545,34.499,34.771,38.196999999999996,34.656,34.443000000000005
37.162,34.425,34.735,38.048,34.591,34.431999999999995
37.78,34.347,34.692,37.898,34.534,34.417
38.385999999999996,34.266,34.644,37.747,34.485,34.399
38.971,34.183,34.59,37.596,34.442,34.376
39.522,34.098,34.533,37.443000000000005,34.406,34.35
40.033,34.010999999999996,34.473,37.29,34.378,34.319
40.496,33.925,34.411,37.135999999999996,34.359,34.285
40.904,33.838,34.347,36.981,34.349000000000004,34.247
41.254,33.751,34.281,36.827,34.348,34.207
41.544,33.663000000000004,34.214,36.673,34.356,34.165
41.771,33.576,34.145,36.52,34.372,34.121
41.938,33.488,34.075,36.369,34.395,34.075
42.047,33.402,34.004,36.219,34.423,34.025
42.101000000000006,33.318000000000005,33.931,36.07,34.453,33.974000000000004
42.104,33.235,33.858000000000004,35.923,34.486,33.921
42.062,33.154,33.783,35.779,34.519,33.866
41.979,33.075,33.707,35.638000000000005,34.554,33.809
41.864,32.998000000000005,33.63,35.501,34.588,33.751
41.72,32.925,33.551,35.368,34.622,33.692
41.555,32.855,33.471,35.241,34.655,33.632
41.373000000000005,32.787,33.39,35.121,34.687,33.57
41.18,32.723,33.308,35.007,34.716,33.508
40.979,32.661,33.225,34.900999999999996,34.742,33.445
40.775,32.602,33.141,34.804,34.763000000000005,33.385
40.57,32.545,33.056999999999995,34.715,34.779,33.326
40.367,32.491,32.973,34.634,34.788000000000004,33.271
40.168,32.437,32.89,34.561,34.79,33.218
39.974000000000004,32.384,32.809,34.498000000000005,34.786,33.168
39.785,32.33,32.729,34.444,34.775999999999996,33.12
39.602,32.275999999999996,32.650999999999996,34.399,34.760999999999996,33.073
39.425,32.222,32.575,34.361999999999995,34.743,33.028
39.253,32.168,32.501,34.335,34.722,32.984
39.086,32.115,32.429,34.316,34.699,32.943000000000005
38.923,32.063,32.359,34.305,34.673,32.904
38.763000000000005,32.013000000000005,32.291,34.302,34.645,32.865
38.606,31.967,32.225,34.305,34.614000000000004,32.827
38.452,31.921999999999997,32.161,34.313,34.579,32.789
38.298,31.88,32.098,34.325,34.541,32.751999999999995
38.146,31.84,32.037,34.34,34.499,32.716
37.995,31.802,31.978,34.357,34.454,32.683
37.843,31.765,31.921,34.375,34.407,32.654
37.691,31.729,31.866,34.393,34.359,32.634
37.538000000000004,31.695,31.814,34.411,34.31,32.626
37.383,31.66,31.763,34.429,34.258,32.632
37.227,31.625999999999998,31.715,34.445,34.205,32.656
37.07,31.592,31.668000000000003,34.459,34.15,32.702
36.914,31.561,31.624000000000002,34.471,34.094,32.773
36.757,31.53,31.581,34.479,34.037,32.875
36.6,31.499000000000002,31.54,34.483000000000004,33.98,33.012
36.445,31.47,31.499000000000002,34.485,33.922,33.192
36.292,31.443,31.46,34.484,33.866,33.42
36.143,31.416999999999998,31.421,34.479,33.812,33.702
35.999,31.393,31.381999999999998,34.472,33.76,34.041
35.861999999999995,31.373,31.344,34.46,33.71,34.437
35.732,31.357,31.308000000000003,34.443000000000005,33.663000000000004,34.887
35.609,31.348000000000003,31.275,34.421,33.62,35.385
35.496,31.35,31.246,34.391999999999996,33.578,35.924
35.391,31.365,31.221,34.357,33.536,36.491
35.297,31.397,31.203000000000003,34.314,33.493,37.074
35.214,31.451999999999998,31.195,34.265,33.448,37.659
35.141,31.535,31.2,34.21,33.400999999999996,38.231
35.078,31.653000000000002,31.221999999999998,34.149,33.352,38.778
35.025,31.811,31.268,34.083,33.304,39.288000000000004
34.981,32.016,31.340999999999998,34.014,33.255,39.749
34.946,32.271,31.448,33.941,33.208,40.153
34.919000000000004,32.583,31.595,33.865,33.162,40.493
34.902,32.952,31.788,33.788000000000004,33.119,40.765
34.893,33.381,32.03,33.709,33.079,40.968
34.891999999999996,33.866,32.326,33.632,33.041,41.1
34.899,34.405,32.678000000000004,33.555,33.005,41.165
34.911,34.992,33.086,33.481,32.972,41.169
34.929,35.621,33.549,33.411,32.939,41.117
34.95,36.281,34.061,33.343,32.908,41.019
34.975,36.961999999999996,34.618,33.278,32.878,40.88
35.001999999999995,37.650999999999996,35.211,33.216,32.848,40.711
35.03,38.336,35.830999999999996,33.157,32.819,40.519
35.059,39.001999999999995,36.467,33.102,32.79,40.312
35.088,39.637,37.107,33.049,32.76,40.097
35.115,40.23,37.739000000000004,32.998000000000005,32.731,39.876999999999995
35.139,40.77,38.351,32.95,32.704,39.656
35.16,41.25,38.931999999999995,32.903,32.681,39.44
35.176,41.663000000000004,39.473,32.855,32.665,39.231
35.189,42.005,39.964,32.806999999999995,32.658,39.03
35.196999999999996,42.273999999999994,40.4,32.756,32.666,38.84
35.199,42.47,40.774,32.702,32.691,38.66
35.196,42.596000000000004,41.083,32.644,32.738,38.489000000000004
35.186,42.653999999999996,41.327,32.583,32.811,38.328
35.17,42.651,41.505,32.519,32.913000000000004,38.173
35.147,42.591,41.621,32.452,33.047,38.023
35.118,42.483999999999995,41.678000000000004,32.382,33.217,37.879
35.079,42.336999999999996,41.683,32.311,33.426,37.739000000000004
35.022,42.157,41.641000000000005,32.241,33.675,37.605
34.946999999999996,41.953,41.56,32.171,33.967,37.474000000000004
34.856,41.73,41.446000000000005,32.102,34.304,37.345
34.755,41.495,41.305,32.036,34.685,37.217
34.648,41.254,41.143,31.974,35.106,37.09
34.539,41.011,40.964,31.915,35.56,36.964
34.433,40.77,40.773,31.862,36.04,36.836999999999996
34.333,40.534,40.573,31.811999999999998,36.536,36.71
34.241,40.306999999999995,40.368,31.768,37.035,36.580999999999996
34.158,40.088,40.16,31.730999999999998,37.527,36.451
34.085,39.88,39.952,31.701999999999998,37.999,36.32
34.022,39.681,39.742,31.683000000000003,38.441,36.189
33.968,39.49,39.533,31.676,38.843,36.056999999999995
33.921,39.306999999999995,39.327,31.684,39.199,35.925
33.879,39.128,39.123000000000005,31.711,39.501,35.794000000000004
33.84,38.953,38.924,31.761,39.745,35.663000000000004
33.801,38.78,38.729,31.84,39.93,35.534
33.76,38.609,38.539,31.951,40.055,35.407
33.716,38.438,38.354,32.1,40.125,35.284
33.668,38.269,38.174,32.293,40.143,35.166
33.614000000000004,38.1,37.996,32.534,40.111999999999995,35.054
33.555,37.933,37.821,32.828,40.04,34.946999999999996
33.491,37.766,37.648,33.179,39.931999999999995,34.846
33.422,37.599000000000004,37.477,33.588,39.795,34.754
33.35,37.431999999999995,37.306999999999995,34.051,39.635999999999996,34.67
33.273,37.266,37.139,34.566,39.461,34.595
33.194,37.1,36.971,35.125,39.275,34.53
33.113,36.935,36.804,35.722,39.083,34.475
33.032,36.77,36.638000000000005,36.345,38.89,34.429
32.951,36.606,36.473,36.986,38.696999999999996,34.393
32.872,36.445,36.309,37.632,38.501999999999995,34.365
32.794000000000004,36.287,36.146,38.272,38.306,34.346
32.72,36.132,35.985,38.891999999999996,38.111,34.334
32.65,35.979,35.824,39.48,37.922,34.327
32.584,35.830999999999996,35.666,40.023,37.74,34.327
32.524,35.687,35.51,40.510999999999996,37.569,34.330999999999996
32.469,35.548,35.357,40.938,37.409,34.34
32.419000000000004,35.415,35.208,41.295,37.262,34.354
32.373000000000005,35.289,35.066,41.582,37.126999999999995,34.371
32.332,35.17,34.93,41.795,37.004,34.391
32.293,35.061,34.804,41.938,36.891,34.409
32.256,34.96,34.686,42.015,36.787,34.426
32.219,34.869,34.578,42.032,36.69,34.44
32.181999999999995,34.787,34.481,41.994,36.597,34.452
32.145,34.715,34.394,41.908,36.507,34.46
32.108000000000004,34.653,34.319,41.782,36.418,34.466
32.071,34.602,34.255,41.623000000000005,36.329,34.469
32.034,34.561,34.201,41.438,36.239000000000004,34.468
31.997,34.531,34.158,41.233999999999995,36.148,34.463
31.961,34.512,34.125,41.016999999999996,36.055,34.455999999999996
31.925,34.504,34.102,40.792,35.96,34.446
31.89,34.506,34.086999999999996,40.565,35.863,34.434
31.857,34.516999999999996,34.082,40.341,35.763000000000005,34.418
31.826,34.536,34.086,40.121,35.661,34.4
31.798000000000002,34.562,34.097,39.908,35.556999999999995,34.379
31.773000000000003,34.591,34.116,39.702,35.452,34.354
31.750999999999998,34.624,34.141,39.501999999999995,35.346,34.326
31.732,34.658,34.172,39.311,35.243,34.296
31.718000000000004,34.693000000000005,34.205999999999996,39.125,35.141999999999996,34.263000000000005
31.71,34.728,34.244,38.946999999999996,35.045,34.228
31.708000000000002,34.76,34.284,38.773,34.955999999999996,34.191
31.714000000000002,34.789,34.326,38.604,34.874,34.150999999999996
31.732,34.815,34.367,38.438,34.801,34.109
31.761999999999997,34.838,34.406,38.275999999999996,34.738,34.065
31.81,34.857,34.444,38.117,34.684,34.016999999999996
31.879,34.873000000000005,34.479,37.959,34.639,33.967
31.974,34.885,34.510999999999996,37.802,34.603,33.914
32.102,34.893,34.539,37.645,34.575,33.859
32.266999999999996,34.897,34.564,37.488,34.556999999999995,33.803000000000004
32.476,34.896,34.586,37.33,34.548,33.745
32.732,34.89,34.603,37.171,34.546,33.686
33.04,34.878,34.615,37.012,34.553000000000004,33.625
33.4,34.861,34.622,36.851,34.568000000000005,33.563
33.812,34.836999999999996,34.622,36.691,34.588,33.5
34.273,34.806999999999995,34.616,36.531,34.614000000000004,33.439
34.779,34.77,34.603,36.37,34.641,33.379
35.323,34.726,34.582,36.209,34.672,33.321999999999996
35.896,34.676,34.554,36.05,34.703,33.266999999999996
36.489000000000004,34.62,34.519,35.893,34.735,33.213
37.09,34.556,34.48,35.74,34.766,33.162
37.688,34.488,34.436,35.592,34.796,33.113
38.272,34.415,34.387,35.45,34.826,33.066
38.832,34.339,34.334,35.314,34.854,33.022
39.359,34.26,34.278,35.186,34.879,32.98
39.843,34.18,34.218,35.065,34.9,32.94
40.278,34.099000000000004,34.153,34.951,34.916,32.903
40.658,34.016999999999996,34.083,34.845,34.927,32.867
40.982,33.936,34.008,34.748000000000005,34.933,32.833
41.245,33.855,33.928000000000004,34.659,34.933,32.798
41.45,33.775,33.845,34.579,34.927,32.764
41.595,33.694,33.759,34.508,34.914,32.729
41.684,33.614000000000004,33.672,34.445,34.896,32.695
41.721000000000004,33.533,33.586999999999996,34.389,34.874,32.662
41.71,33.451,33.503,34.342,34.847,32.628
41.657,33.37,33.422,34.302,34.818000000000005,32.594
41.568000000000005,33.29,33.342,34.268,34.787,32.559
41.446999999999996,33.209,33.265,34.24,34.755,32.522
41.3,33.13,33.189,34.218,34.722,32.485
41.133,33.052,33.115,34.201,34.687,32.446
40.952,32.976,33.042,34.19,34.650999999999996,32.407
40.76,32.900999999999996,32.97,34.185,34.611999999999995,32.369
40.562,32.828,32.898,34.185,34.571,32.334
40.359,32.757,32.828,34.189,34.529,32.303000000000004
40.154,32.687,32.760999999999996,34.199,34.485,32.277
39.951,32.62,32.696,34.213,34.44,32.26
39.75,32.554,32.635,34.23,34.396,32.255
39.552,32.489000000000004,32.577,34.25,34.352,32.266
39.358000000000004,32.426,32.522,34.272,34.306999999999995,32.298
39.167,32.364000000000004,32.47,34.295,34.259,32.355
38.978,32.302,32.419000000000004,34.317,34.209,32.442
38.793,32.241,32.369,34.338,34.156,32.567
38.61,32.181999999999995,32.319,34.357,34.099000000000004,32.732
38.43,32.124,32.27,34.372,34.04,32.944
38.251999999999995,32.067,32.221,34.383,33.98,33.208
38.075,32.010999999999996,32.174,34.389,33.919000000000004,33.528
37.9,31.956999999999997,32.128,34.389,33.859,33.907
37.726,31.906,32.082,34.384,33.801,34.344
37.554,31.857,32.037,34.372,33.745,34.836999999999996
37.383,31.811999999999998,31.993000000000002,34.353,33.691,35.38
37.216,31.769000000000002,31.949,34.328,33.638000000000005,35.964
37.05,31.729,31.905,34.296,33.584,36.577
36.887,31.693,31.862,34.257,33.531,37.204
36.726,31.66,31.820999999999998,34.211999999999996,33.478,37.83
36.567,31.63,31.781,34.162,33.425,38.44
36.411,31.601,31.744,34.107,33.374,39.019
36.256,31.573,31.708000000000002,34.05,33.323,39.553000000000004
36.104,31.546,31.675,33.991,33.273,40.031
35.954,31.521,31.644000000000002,33.931,33.223,40.443000000000005
35.808,31.497,31.614,33.87,33.172,40.783
35.666,31.474,31.586,33.806999999999995,33.121,41.05
35.529,31.453000000000003,31.559,33.744,33.069,41.243
35.396,31.433000000000003,31.535,33.68,33.016999999999996,41.364
35.269,31.415,31.516,33.615,32.966,41.418
35.147,31.398000000000003,31.504,33.55,32.917,41.41
35.033,31.381999999999998,31.500999999999998,33.484,32.872,41.348
34.926,31.366,31.511999999999997,33.419000000000004,32.83,41.24
34.829,31.351999999999997,31.54,33.354,32.793,41.092
34.743,31.338,31.589000000000002,33.29,32.759,40.913000000000004
34.667,31.326999999999998,31.665,33.227,32.73,40.708
34.603,31.318,31.774,33.165,32.705,40.484
34.552,31.311999999999998,31.921999999999997,33.104,32.685,40.248000000000005
34.514,31.31,32.114000000000004,33.045,32.674,40.005
34.486,31.315,32.356,32.986999999999995,32.672,39.762
34.47,31.328000000000003,32.650999999999996,32.93,32.684,39.523
34.464,31.351999999999997,33.001999999999995,32.873000000000005,32.711999999999996,39.293
34.468,31.393,33.409,32.818000000000005,32.760999999999996,39.075
34.48,31.456,33.87,32.762,32.833,38.869
34.5,31.548000000000002,34.381,32.707,32.931999999999995,38.676
34.528,31.679000000000002,34.936,32.65,33.06,38.496
34.563,31.854,35.525999999999996,32.592,33.224000000000004,38.326
34.603,32.08,36.139,32.533,33.425,38.165
34.647,32.361999999999995,36.765,32.473,33.667,38.012
34.695,32.703,37.39,32.411,33.952,37.864000000000004
34.744,33.103,38.001,32.349000000000004,34.282,37.72
34.793,33.561,38.586999999999996,32.286,34.655,37.58
34.842,34.071999999999996,39.139,32.223,35.069,37.443000000000005
34.888000000000005,34.632,39.649,32.159,35.516999999999996,37.306999999999995
34.93,35.234,40.109,32.096,35.993,37.172
34.968,35.87,40.515,32.033,36.485,37.038000000000004
34.999,36.529,40.863,31.971999999999998,36.984,36.904
35.023,37.2,41.152,31.913,37.478,36.768
35.041,37.869,41.38,31.857,37.955,36.633
35.051,38.525,41.549,31.805,38.404,36.5
35.054,39.156,41.66,31.756,38.816,36.369
35.049,39.751,41.716,31.711,39.181999999999995,36.239000000000004
35.037,40.3,41.718999999999994,31.669,39.498000000000005,36.111999999999995
35.018,40.795,41.674,31.629,39.758,35.986
34.992,41.227,41.586999999999996,31.592,39.959,35.861999999999995
34.96,41.591,41.464,31.557,40.102,35.739000000000004
34.921,41.886,41.31100000000001,31.526999999999997,40.186,35.617
34.876999999999995,42.11,41.133,31.505,40.216,35.496
34.827,42.266000000000005,40.938,31.491999999999997,40.195,35.376999999999995
34.773,42.358000000000004,40.729,31.491999999999997,40.129,35.260999999999996
34.715,42.391000000000005,40.513000000000005,31.506999999999998,40.023,35.150999999999996
34.653,42.37,40.292,31.541,39.885999999999996,35.046
34.588,42.301,40.07,31.598000000000003,39.723,34.946999999999996
34.52,42.191,39.849000000000004,31.683000000000003,39.543,34.855
34.45,42.04600000000001,39.632,31.802,39.352,34.771
34.378,41.872,39.419000000000004,31.96,39.154,34.694
34.303000000000004,41.675,39.211,32.162,38.955999999999996,34.625
34.226,41.461000000000006,39.008,32.414,38.76,34.564
34.149,41.236000000000004,38.806999999999995,32.721,38.57,34.512
34.071999999999996,41.003,38.608000000000004,33.085,38.387,34.469
33.994,40.765,38.411,33.509,38.21,34.434
33.916,40.525,38.215,33.99,38.041,34.407
33.838,40.285,38.019,34.527,37.881,34.387
33.759,40.048,37.825,35.111999999999995,37.731,34.373000000000005
33.681,39.815,37.632,35.736999999999995,37.589,34.367
33.605,39.586999999999996,37.441,36.391999999999996,37.455999999999996,34.367
33.53,39.363,37.251,37.065,37.333,34.372
33.455999999999996,39.144,37.062,37.741,37.216,34.379
33.385,38.93,36.875,38.406,37.107,34.39
33.315,38.722,36.691,39.046,37.001999999999995,34.402
33.246,38.518,36.509,39.649,36.902,34.416
33.178000000000004,38.321,36.329,40.201,36.804,34.428000000000004
33.11,38.128,36.150999999999996,40.693000000000005,36.708,34.441
33.044000000000004,37.94,35.975,41.117,36.611999999999995,34.452
32.979,37.755,35.801,41.468999999999994,36.513000000000005,34.463
32.915,37.573,35.631,41.746,36.41,34.477
32.854,37.393,35.465,41.948,36.305,34.495
32.794000000000004,37.215,35.302,42.076,36.196999999999996,34.516999999999996
32.735,37.038000000000004,35.144,42.136,36.088,34.54
32.677,36.861,34.991,42.13399999999999,35.977,34.561
32.621,36.684,34.844,42.076,35.865,34.578
32.567,36.507,34.702,41.97,35.754,34.589
32.516,36.33,34.568000000000005,41.825,35.644,34.59
32.468,36.153,34.442,41.648999999999994,35.536,34.584
32.423,35.978,34.326,41.449,35.43,34.568000000000005
32.381,35.806,34.222,41.232,35.328,34.543
32.341,35.639,34.131,41.005,35.23,34.509
32.303000000000004,35.477,34.053000000000004,40.773,35.137,34.467
32.266999999999996,35.321999999999996,33.989000000000004,40.541,35.05,34.419000000000004
32.232,35.175,33.939,40.312,34.97,34.366
32.199,35.036,33.904,40.09,34.899,34.309
32.167,34.908,33.883,39.876,34.836999999999996,34.249
32.135999999999996,34.789,33.875,39.672,34.784,34.187
32.108000000000004,34.681,33.88,39.475,34.739000000000004,34.124
32.082,34.586999999999996,33.895,39.286,34.702,34.061
32.06,34.506,33.92,39.104,34.672,33.997
32.04,34.44,33.952,38.927,34.649,33.935
32.023,34.387,33.991,38.755,34.632,33.874
32.008,34.348,34.036,38.586,34.623000000000005,33.815
31.996,34.321999999999996,34.085,38.42,34.619,33.756
31.986,34.306999999999995,34.137,38.257,34.622,33.699
31.979,34.301,34.191,38.097,34.631,33.644
31.974,34.303000000000004,34.247,37.937,34.646,33.59
31.974,34.312,34.303000000000004,37.778,34.665,33.538000000000004
31.980999999999998,34.328,34.36,37.618,34.688,33.486999999999995
31.997,34.349000000000004,34.416,37.457,34.713,33.436
32.024,34.376,34.471,37.294000000000004,34.739000000000004,33.387
32.066,34.408,34.524,37.129,34.765,33.34
32.129,34.443000000000005,34.571999999999996,36.961999999999996,34.791,33.295
32.217,34.481,34.616,36.794000000000004,34.817,33.25
32.336,34.523,34.654,36.625,34.842,33.205999999999996
32.49,34.567,34.684,36.455999999999996,34.868,33.162
32.685,34.614000000000004,34.707,36.289,34.891,33.119
32.925,34.662,34.721,36.125,34.912,33.077
33.213,34.71,34.726,35.961999999999996,34.93,33.034
33.552,34.758,34.723,35.802,34.943000000000005,32.992
33.94,34.804,34.711,35.646,34.951,32.95
34.375,34.846,34.691,35.495,34.955,32.908
34.854,34.883,34.665,35.351,34.953,32.866
35.369,34.915,34.633,35.214,34.946999999999996,32.824
35.914,34.942,34.596,35.086,34.935,32.783
36.479,34.961999999999996,34.554,34.968,34.918,32.741
37.054,34.977,34.508,34.86,34.896,32.699
37.629,34.985,34.455999999999996,34.762,34.868,32.655
38.193000000000005,34.986,34.400999999999996,34.673,34.836,32.611
38.736999999999995,34.979,34.342,34.593,34.798,32.566
39.25,34.965,34.279,34.523,34.757,32.521
39.725,34.943000000000005,34.214,34.461999999999996,34.711999999999996,32.478
40.154,34.913000000000004,34.147,34.41,34.664,32.435
40.532,34.875,34.079,34.367,34.614000000000004,32.391999999999996
40.854,34.83,34.01,34.330999999999996,34.564,32.351
41.119,34.778,33.939,34.303000000000004,34.513000000000005,32.312
41.326,34.721,33.868,34.281,34.461999999999996,32.275999999999996
41.477,34.658,33.795,34.264,34.41,32.244
41.574,34.59,33.721,34.253,34.358000000000004,32.214
41.62,34.518,33.646,34.247,34.306,32.189
41.618,34.445,33.57,34.246,34.253,32.168
41.574,34.369,33.494,34.249,34.199,32.15
41.494,34.292,33.418,34.256,34.147,32.137
41.381,34.215,33.345,34.266,34.094,32.126999999999995
41.24100000000001,34.137,33.273,34.278,34.043,32.122
41.078,34.06,33.204,34.291,33.991,32.121
40.897,33.983000000000004,33.137,34.305,33.939,32.128
40.702,33.906,33.07,34.321,33.885999999999996,32.143
40.497,33.83,33.003,34.336999999999996,33.832,32.171
40.285,33.753,32.936,34.354,33.778,32.211999999999996
40.069,33.676,32.868,34.371,33.723,32.27
39.849000000000004,33.599000000000004,32.799,34.387,33.668,32.348
39.629,33.522,32.73,34.400999999999996,33.614000000000004,32.451
39.41,33.444,32.661,34.412,33.56,32.585
39.195,33.365,32.594,34.419000000000004,33.508,32.758
38.982,33.286,32.528,34.42,33.457,32.974000000000004
38.772,33.205999999999996,32.465,34.416,33.406,33.24
38.565,33.125,32.404,34.407,33.357,33.559
38.361,33.045,32.346,34.391,33.308,33.933
38.161,32.966,32.29,34.37,33.26,34.363
37.964,32.888000000000005,32.236,34.342,33.214,34.845
37.77,32.813,32.183,34.309,33.169000000000004,35.374
37.578,32.742,32.132,34.27,33.126999999999995,35.941
37.388000000000005,32.673,32.084,34.226,33.088,36.536
37.2,32.608000000000004,32.038000000000004,34.175,33.049,37.145
37.015,32.546,31.995,34.119,33.012,37.755
36.830999999999996,32.486999999999995,31.954,34.058,32.975,38.351
36.649,32.43,31.915,33.993,32.938,38.92
36.467,32.375,31.878,33.925,32.902,39.449
36.288000000000004,32.321,31.842,33.855,32.867,39.928000000000004
36.111,32.269,31.807,33.785,32.833,40.348
35.938,32.218,31.774,33.714,32.8,40.702
35.771,32.168,31.743000000000002,33.644,32.77,40.986999999999995
35.609,32.115,31.715999999999998,33.576,32.742,41.201
35.454,32.054,31.694000000000003,33.509,32.718,41.347
35.306999999999995,31.986,31.680999999999997,33.443000000000005,32.699,41.427
35.167,31.912,31.679000000000002,33.378,32.685,41.445
35.037,31.836,31.691999999999997,33.315,32.679,41.406000000000006
34.917,31.761,31.723000000000003,33.253,32.685,41.317
34.808,31.69,31.778000000000002,33.192,32.705,41.184
34.709,31.625,31.86,33.13,32.744,41.016000000000005
34.621,31.57,31.975,33.068000000000005,32.806999999999995,40.819
34.544000000000004,31.523000000000003,32.129,33.004,32.898,40.602
34.479,31.487,32.326,32.938,33.022,40.373000000000005
34.426,31.462,32.57,32.871,33.183,40.138000000000005
34.385,31.447,32.866,32.803000000000004,33.384,39.902
34.355,31.441,33.215,32.735,33.628,39.668
34.336,31.443,33.619,32.668,33.918,39.439
34.328,31.449,34.075,32.601,34.254,39.218
34.329,31.46,34.58,32.535,34.634,39.006
34.341,31.471,35.126999999999995,32.471,35.056999999999995,38.803000000000004
34.36,31.482,35.709,32.409,35.518,38.61
34.388000000000005,31.49,36.316,32.349000000000004,36.009,38.427
34.421,31.496,36.938,32.292,36.521,38.253
34.458,31.5,37.562,32.239000000000004,37.043,38.088
34.5,31.503,38.178000000000004,32.187,37.563,37.931
34.545,31.506,38.774,32.138000000000005,38.069,37.781
34.593,31.511,39.339,32.09,38.545,37.635
34.643,31.521,39.863,32.044000000000004,38.981,37.495
34.693000000000005,31.541,40.338,31.999000000000002,39.367,37.357
34.741,31.573,40.756,31.956,39.695,37.221
34.786,31.623,41.114,31.913,39.961,37.086999999999996
34.829,31.697,41.407,31.87,40.162,36.955999999999996
34.868,31.801,41.636,31.828000000000003,40.3,36.827
34.902,31.941,41.801,31.785999999999998,40.376999999999995,36.701
34.931999999999995,32.123000000000005,41.905,31.743000000000002,40.398,36.575
34.955999999999996,32.353,41.951,31.699,40.369,36.45
34.974000000000004,32.635999999999996,41.945,31.655,40.297,36.326
34.985,32.974000000000004,41.893,31.61,40.19,36.201
34.99,33.368,41.801,31.565,40.056,36.076
34.989000000000004,33.817,41.677,31.52,39.9,35.95
34.982,34.319,41.527,31.478,39.73,35.823
34.969,34.87,41.357,31.439,39.551,35.698
34.951,35.461,41.175,31.405,39.366,35.574
34.928000000000004,36.084,40.983000000000004,31.378,39.18,35.454
34.898,36.728,40.785,31.358,38.994,35.336999999999996
34.863,37.384,40.583,31.349,38.814,35.224000000000004
34.821999999999996,38.04,40.38,31.355,38.639,35.115
34.775,38.683,40.176,31.378,38.471,35.010999999999996
34.723,39.303000000000004,39.971,31.423000000000002,38.311,34.914
34.666,39.885999999999996,39.765,31.495,38.159,34.824
34.604,40.424,39.558,31.6,38.015,34.746
34.539,40.907,39.352,31.741999999999997,37.878,34.683
34.472,41.328,39.148,31.927,37.749,34.634
34.402,41.681999999999995,38.945,32.159,37.626999999999995,34.597
34.33,41.967,38.745,32.443000000000005,37.51,34.569
34.256,42.184,38.55,32.783,37.395,34.55
34.181999999999995,42.333,38.359,33.18,37.283,34.536
34.107,42.418,38.174,33.635999999999996,37.172,34.528
34.031,42.442,37.994,34.149,37.061,34.524
33.955,42.411,37.82,34.715,36.951,34.522
33.88,42.332,37.649,35.327,36.841,34.523
33.805,42.211000000000006,37.481,35.976,36.731,34.525
33.731,42.056000000000004,37.314,36.649,36.623000000000005,34.529
33.658,41.873999999999995,37.148,37.334,36.515,34.532
33.586,41.67,36.981,38.016999999999996,36.407,34.534
33.516,41.451,36.813,38.683,36.299,34.534
33.446999999999996,41.22,36.644,39.318000000000005,36.19,34.534
33.379,40.983000000000004,36.475,39.909,36.080999999999996,34.532
33.311,40.742,36.306,40.445,35.971,34.528
33.243,40.501,36.135999999999996,40.916,35.861999999999995,34.524
33.176,40.260999999999996,35.967,41.316,35.754,34.52
33.111,40.025,35.8,41.641999999999996,35.65,34.516
33.047,39.793,35.635,41.89,35.55,34.510999999999996
32.984,39.566,35.474000000000004,42.06399999999999,35.454,34.504
32.921,39.345,35.318000000000005,42.165,35.361999999999995,34.495
32.86,39.131,35.168,42.199,35.275999999999996,34.484
32.799,38.921,35.027,42.173,35.196999999999996,34.469
32.74,38.718,34.896,42.093999999999994,35.124,34.452
32.681999999999995,38.519,34.777,41.97,35.056999999999995,34.431999999999995
32.626,38.324,34.668,41.81100000000001,34.998000000000005,34.409
32.573,38.131,34.571,41.625,34.946999999999996,34.385
32.522,37.941,34.486,41.417,34.904,34.359
32.475,37.751,34.412,41.196000000000005,34.869,34.329
32.429,37.561,34.349000000000004,40.966,34.84,34.296
32.387,37.369,34.297,40.734,34.819,34.26
32.346,37.176,34.257,40.504,34.804,34.221
32.306999999999995,36.98,34.229,40.278,34.796,34.181
32.27,36.785,34.214,40.059,34.793,34.141
32.235,36.591,34.211,39.847,34.795,34.1
32.201,36.400999999999996,34.219,39.643,34.802,34.059
32.169000000000004,36.215,34.236999999999995,39.446999999999996,34.813,34.018
32.139,36.035,34.265,39.259,34.828,33.978
32.111,35.86,34.3,39.078,34.845,33.936
32.085,35.692,34.341,38.902,34.863,33.891999999999996
32.062,35.53,34.385999999999996,38.729,34.882,33.847
32.042,35.375,34.434,38.56,34.900999999999996,33.8
32.025,35.227,34.483000000000004,38.394,34.921,33.751
32.010999999999996,35.086999999999996,34.533,38.229,34.939,33.699
32.003,34.955,34.58,38.065,34.955,33.645
32.001999999999995,34.830999999999996,34.626,37.900999999999996,34.968,33.589
32.010999999999996,34.716,34.668,37.736,34.976,33.532
32.033,34.611,34.707,37.571,34.98,33.472
32.074,34.516,34.741,37.405,34.979,33.412
32.138000000000005,34.431999999999995,34.77,37.238,34.973,33.353
32.232,34.36,34.795,37.069,34.964,33.296
32.36,34.299,34.815,36.9,34.951,33.241
32.528,34.25,34.830999999999996,36.729,34.935,33.188
32.742,34.213,34.841,36.558,34.916,33.137
33.005,34.188,34.846,36.385,34.891999999999996,33.088
33.319,34.175,34.846,36.211,34.866,33.04
33.684,34.172,34.84,36.038000000000004,34.836999999999996,32.992
34.099000000000004,34.181,34.827,35.866,34.805,32.944
34.561,34.198,34.806,35.696999999999996,34.77,32.895
35.064,34.224000000000004,34.777,35.533,34.731,32.847
35.603,34.258,34.74,35.374,34.689,32.798
36.17,34.3,34.696,35.223,34.645,32.75
36.754,34.348,34.645,35.082,34.597,32.702
37.345,34.400999999999996,34.588,34.951,34.548,32.654
37.93,34.457,34.525,34.832,34.496,32.608000000000004
38.499,34.516,34.457,34.724000000000004,34.443000000000005,32.562
39.042,34.576,34.385999999999996,34.628,34.388000000000005,32.519
39.552,34.635,34.312,34.546,34.330999999999996,32.478
40.02,34.693000000000005,34.235,34.476,34.272,32.439
40.442,34.747,34.157,34.418,34.214,32.402
40.812,34.797,34.077,34.372,34.156,32.368
41.128,34.842,33.995,34.336,34.101,32.336999999999996
41.388000000000005,34.882,33.913000000000004,34.31,34.049,32.31
41.591,34.915,33.830999999999996,34.292,33.998000000000005,32.287
41.739,34.941,33.749,34.283,33.949,32.266
41.833999999999996,34.96,33.668,34.28,33.902,32.248000000000005
41.879,34.97,33.589,34.283,33.856,32.231
41.876999999999995,34.972,33.510999999999996,34.29,33.81,32.214
41.835,34.965,33.435,34.3,33.765,32.196999999999996
41.757,34.952,33.36,34.312,33.721,32.181
41.647,34.931,33.287,34.324,33.677,32.165
41.51,34.904,33.214,34.335,33.634,32.15
41.353,34.869,33.143,34.346,33.591,32.135
41.18,34.83,33.071999999999996,34.355,33.548,32.121
40.995,34.785,33.001999999999995,34.364000000000004,33.504,32.108000000000004
40.8,34.735,32.934,34.372,33.46,32.098
40.598,34.68,32.866,34.379,33.414,32.091
40.391,34.62,32.801,34.385999999999996,33.365,32.089
40.183,34.556,32.736999999999995,34.391,33.314,32.096
39.974000000000004,34.486999999999995,32.674,34.395,33.260999999999996,32.113
39.766999999999996,34.414,32.613,34.398,33.207,32.143
39.563,34.338,32.553000000000004,34.399,33.155,32.192
39.363,34.259,32.495,34.397,33.104,32.260999999999996
39.168,34.177,32.437,34.393,33.055,32.356
38.977,34.093,32.381,34.388000000000005,33.008,32.48
38.792,34.008,32.326,34.381,32.963,32.639
38.611,33.921,32.273,34.371,32.92,32.836999999999996
38.434,33.835,32.22,34.356,32.878,33.080999999999996
38.260999999999996,33.749,32.169000000000004,34.336,32.838,33.375
38.093,33.665,32.119,34.31,32.798,33.723
37.927,33.582,32.071,34.278,32.76,34.126
37.763000000000005,33.5,32.023,34.24,32.723,34.583
37.6,33.42,31.976999999999997,34.195,32.687,35.091
37.438,33.339,31.93,34.145,32.653,35.644
37.275,33.257,31.885,34.089,32.621,36.233000000000004
37.111,33.173,31.84,34.029,32.591,36.844
36.948,33.088,31.796,33.964,32.565,37.465
36.785,33.003,31.754,33.896,32.544000000000004,38.08
36.622,32.92,31.715,33.826,32.531,38.674
36.46,32.838,31.678,33.754,32.53,39.234
36.3,32.759,31.646,33.681,32.544000000000004,39.746
36.141,32.684,31.62,33.608000000000004,32.574,40.202
35.985,32.613,31.601,33.535,32.623000000000005,40.593
35.833,32.546,31.593000000000004,33.464,32.695,40.915
35.685,32.481,31.596999999999998,33.395,32.792,41.163000000000004
35.541,32.421,31.616999999999997,33.328,32.92,41.336999999999996
35.403,32.363,31.656999999999996,33.263000000000005,33.08,41.44
35.271,32.306999999999995,31.721999999999998,33.199,33.277,41.476000000000006
35.147,32.253,31.819000000000003,33.135999999999996,33.515,41.451
35.032,32.2,31.951999999999998,33.075,33.795,41.372
34.926,32.149,32.128,33.015,34.118,41.246
34.833,32.1,32.354,32.954,34.485,41.081
34.751999999999995,32.052,32.635,32.891999999999996,34.893,40.887
34.684,32.007,32.973,32.829,35.338,40.671
34.628,31.963,33.371,32.765,35.815,40.441
34.585,31.921,33.827,32.7,36.314,40.204
34.556,31.88,34.338,32.635,36.825,39.966
34.538000000000004,31.84,34.899,32.57,37.336999999999996,39.73
34.532,31.802,35.5,32.506,37.838,39.5
34.536,31.765,36.133,32.444,38.317,39.277
34.548,31.730999999999998,36.784,32.385,38.763000000000005,39.065
34.566,31.698,37.442,32.329,39.167,38.863
34.591,31.668000000000003,38.093,32.274,39.521,38.672
34.62,31.639,38.723,32.22,39.819,38.492
34.654,31.613000000000003,39.321,32.168,40.056999999999995,38.32
34.69,31.587,39.878,32.117,40.234,38.157
34.729,31.563000000000002,40.384,32.067,40.35,38.0
34.768,31.538,40.834,32.018,40.407,37.848
34.809,31.514,41.223,31.968000000000004,40.409,37.699
34.849000000000004,31.491,41.547,31.918000000000003,40.363,37.552
34.888000000000005,31.469,41.806999999999995,31.868000000000002,40.275,37.406
34.925,31.448,42.004,31.816999999999997,40.152,37.260999999999996
34.959,31.429000000000002,42.138999999999996,31.767,40.003,37.117
34.989000000000004,31.410999999999998,42.216,31.715999999999998,39.834,36.974000000000004
35.014,31.396,42.239,31.666999999999998,39.654,36.833
35.035,31.383000000000003,42.215,31.619,39.467,36.696
35.049,31.375,42.148,31.574,39.279,36.561
35.056999999999995,31.373,42.04600000000001,31.533,39.095,36.428000000000004
35.059,31.379,41.912,31.496,38.916,36.297
35.054,31.396,41.754,31.465,38.744,36.167
35.042,31.426,41.576,31.44,38.58,36.041
35.023,31.475,41.385,31.423000000000002,38.422,35.918
34.998000000000005,31.546999999999997,41.184,31.415,38.271,35.798
34.966,31.646,40.976000000000006,31.419,38.126,35.681
34.926,31.779,40.766,31.438000000000002,37.988,35.569
34.879,31.951,40.556,31.475,37.855,35.46
34.827,32.169000000000004,40.349000000000004,31.535,37.729,35.356
34.77,32.437,40.146,31.621,37.608000000000004,35.257
34.708,32.759,39.948,31.739,37.492,35.161
34.643,33.138000000000005,39.756,31.893,37.38,35.069
34.575,33.574,39.569,32.088,37.272,34.982
34.501999999999995,34.066,39.389,32.33,37.165,34.898
34.427,34.611999999999995,39.214,32.621,37.059,34.818000000000005
34.351,35.205,39.044000000000004,32.966,36.951,34.742
34.274,35.839,38.876999999999995,33.366,36.843,34.671
34.196999999999996,36.505,38.713,33.82,36.733000000000004,34.606
34.12,37.191,38.551,34.327,36.622,34.547
34.043,37.887,38.389,34.88,36.512,34.496
33.966,38.578,38.228,35.474000000000004,36.400999999999996,34.451
33.89,39.251999999999995,38.066,36.097,36.291,34.414
33.815,39.896,37.904,36.74,36.181,34.385999999999996
33.742,40.498000000000005,37.741,37.39,36.068000000000005,34.367
33.669000000000004,41.048,37.578,38.035,35.954,34.356
33.597,41.536,37.415,38.662,35.838,34.352
33.525999999999996,41.957,37.253,39.258,35.721,34.357
33.455999999999996,42.306999999999995,37.093,39.812,35.604,34.367
33.387,42.582,36.934,40.313,35.488,34.383
33.32,42.783,36.777,40.753,35.376999999999995,34.402
33.254,42.913000000000004,36.619,41.126000000000005,35.273,34.424
33.188,42.976000000000006,36.461999999999996,41.428000000000004,35.177,34.446
33.123000000000005,42.976000000000006,36.306,41.659,35.09,34.468
33.058,42.92100000000001,36.152,41.818999999999996,35.013000000000005,34.491
32.992,42.818999999999996,36.0,41.911,34.946,34.512
32.928000000000004,42.677,35.849000000000004,41.941,34.89,34.533
32.865,42.503,35.7,41.913999999999994,34.845,34.551
32.804,42.303999999999995,35.554,41.836000000000006,34.811,34.566
32.744,42.088,35.412,41.715,34.787,34.578
32.685,41.858999999999995,35.275,41.558,34.772,34.585
32.626999999999995,41.623000000000005,35.145,41.373999999999995,34.766,34.586999999999996
32.57,41.386,35.023,41.169,34.766999999999996,34.585
32.515,41.151,34.912,40.951,34.771,34.578
32.461,40.919000000000004,34.813,40.724000000000004,34.78,34.565
32.41,40.691,34.727,40.495,34.792,34.546
32.36,40.469,34.654,40.266999999999996,34.806999999999995,34.52
32.313,40.253,34.594,40.042,34.823,34.49
32.266999999999996,40.044000000000004,34.548,39.823,34.839,34.454
32.223,39.84,34.516,39.611,34.855,34.414
32.181999999999995,39.641999999999996,34.495,39.406,34.87,34.37
32.143,39.45,34.485,39.209,34.884,34.324
32.106,39.262,34.484,39.019,34.897,34.275999999999996
32.073,39.077,34.492,38.836,34.906,34.227
32.042,38.895,34.507,38.659,34.913000000000004,34.177
32.013000000000005,38.715,34.529,38.486,34.917,34.133
31.987,38.538000000000004,34.556999999999995,38.317,34.919000000000004,34.107
31.963,38.361999999999995,34.589,38.150999999999996,34.919000000000004,34.099000000000004
31.941999999999997,38.189,34.626,37.986,34.917,34.109
31.924,38.016,34.664,37.821999999999996,34.913000000000004,34.128
31.91,37.845,34.704,37.657,34.906,34.152
31.901999999999997,37.676,34.742,37.491,34.897,34.174
31.901999999999997,37.507,34.778,37.324,34.885,34.187
31.912,37.339,34.811,37.157,34.87,34.185
31.938000000000002,37.172,34.838,36.988,34.852,34.163000000000004
31.983,37.005,34.86,36.818000000000005,34.830999999999996,34.12
32.052,36.836999999999996,34.876,36.646,34.806,34.055
32.150999999999996,36.67,34.885999999999996,36.474000000000004,34.778,33.971
32.287,36.501999999999995,34.891,36.301,34.745,33.871
32.463,36.336,34.891999999999996,36.128,34.708,33.757
32.686,36.173,34.888000000000005,35.955999999999996,34.667,33.634
32.96,36.013000000000005,34.881,35.785,34.623000000000005,33.506
33.287,35.857,34.869,35.617,34.577,33.376
33.67,35.707,34.853,35.453,34.528,33.248000000000005
34.107,35.562,34.830999999999996,35.293,34.477,33.125
34.596,35.423,34.803000000000004,35.14,34.425,33.01
35.132,35.292,34.769,34.996,34.372,32.906
35.707,35.169000000000004,34.731,34.86,34.318000000000005,32.815
36.311,35.056,34.688,34.735,34.265,32.736
36.934,34.952,34.641,34.619,34.211,32.669000000000004
37.564,34.86,34.589,34.515,34.159,32.613
38.19,34.78,34.534,34.421,34.107,32.567
38.799,34.711,34.474000000000004,34.339,34.056,32.528
39.382,34.656,34.41,34.266999999999996,34.004,32.495
39.926,34.611999999999995,34.341,34.205,33.953,32.468
40.423,34.582,34.269,34.15,33.902,32.444
40.868,34.563,34.193000000000005,34.103,33.852,32.423
41.254,34.556999999999995,34.115,34.062,33.801,32.404
41.58,34.56,34.034,34.028,33.749,32.385
41.843999999999994,34.573,33.952,34.001,33.696,32.365
42.044,34.592,33.87,33.979,33.641999999999996,32.343
42.184,34.617,33.787,33.961999999999996,33.586,32.318000000000005
42.266999999999996,34.647,33.705,33.95,33.529,32.291
42.29600000000001,34.681,33.623000000000005,33.944,33.472,32.260999999999996
42.277,34.718,33.543,33.943000000000005,33.414,32.23
42.216,34.756,33.464,33.946999999999996,33.357,32.196999999999996
42.118,34.794000000000004,33.385999999999996,33.955,33.302,32.163000000000004
41.989,34.833,33.31,33.967,33.249,32.128
41.836999999999996,34.871,33.236,33.983000000000004,33.198,32.092
41.666000000000004,34.907,33.164,34.003,33.15,32.058
41.483000000000004,34.941,33.093,34.024,33.103,32.025
41.29,34.971,33.023,34.048,33.059,31.995
41.092,34.997,32.954,34.071999999999996,33.015,31.969
40.891999999999996,35.018,32.885,34.096,32.973,31.948
40.692,35.033,32.817,34.119,32.931,31.934
40.493,35.043,32.75,34.14,32.888000000000005,31.928
40.297,35.048,32.683,34.158,32.844,31.930999999999997
40.104,35.047,32.616,34.171,32.8,31.945
39.914,35.04,32.551,34.18,32.756,31.971999999999998
39.728,35.025999999999996,32.486999999999995,34.183,32.711999999999996,32.015
39.547,35.005,32.424,34.179,32.67,32.078
39.369,34.977,32.363,34.169000000000004,32.629,32.164
39.194,34.944,32.303000000000004,34.150999999999996,32.588,32.277
39.021,34.904,32.244,34.126999999999995,32.548,32.418
38.851,34.858000000000004,32.187,34.095,32.509,32.592
38.681,34.806,32.13,34.056,32.473,32.802
38.514,34.749,32.075,34.01,32.44,33.052
38.348,34.685,32.021,33.957,32.411,33.347
38.183,34.616,31.969,33.899,32.389,33.689
38.019,34.541,31.918000000000003,33.835,32.375,34.080999999999996
37.856,34.461999999999996,31.87,33.766,32.369,34.518
37.694,34.379,31.824,33.695,32.374,34.999
37.534,34.294000000000004,31.78,33.622,32.391,35.516999999999996
37.375,34.208,31.738000000000003,33.548,32.423,36.066
37.218,34.121,31.698,33.476,32.474000000000004,36.635999999999996
37.062,34.035,31.66,33.404,32.548,37.216
36.907,33.948,31.625,33.333,32.648,37.792
36.753,33.863,31.594,33.264,32.779,38.351
36.599000000000004,33.778,31.569000000000003,33.196,32.942,38.881
36.446,33.694,31.551,33.13,33.141,39.371
36.297,33.611,31.543000000000003,33.065,33.379,39.811
36.150999999999996,33.527,31.55,33.001,33.658,40.193000000000005
36.009,33.444,31.576,32.938,33.979,40.512
35.872,33.36,31.627,32.876999999999995,34.343,40.763000000000005
35.739000000000004,33.277,31.708000000000002,32.819,34.749,40.946
35.611999999999995,33.193000000000005,31.823,32.760999999999996,35.194,41.06100000000001
35.491,33.109,31.98,32.705,35.672,41.111000000000004
35.379,33.025999999999996,32.181999999999995,32.65,36.177,41.102
35.275999999999996,32.943000000000005,32.436,32.595,36.698,41.04
35.183,32.861,32.744,32.541,37.225,40.934
35.102,32.78,33.108000000000004,32.486,37.745,40.789
35.031,32.701,33.529,32.431999999999995,38.245,40.613
34.972,32.624,34.004,32.376999999999995,38.714,40.415
34.924,32.549,34.529,32.323,39.141,40.201
34.885999999999996,32.477,35.097,32.269,39.519,39.977
34.859,32.405,35.701,32.215,39.841,39.748000000000005
34.842,32.336999999999996,36.329,32.161,40.102,39.52
34.834,32.271,36.973,32.109,40.299,39.296
34.834,32.207,37.619,32.058,40.434,39.079
34.842,32.145,38.257,32.010999999999996,40.509,38.87
34.858000000000004,32.085,38.873000000000005,31.965,40.529,38.671
34.879,32.029,39.455999999999996,31.92,40.498000000000005,38.482
34.906,31.975,39.997,31.875,40.423,38.303000000000004
34.938,31.925,40.486999999999995,31.83,40.312,38.133
34.973,31.877,40.92,31.783,40.17,37.97
35.01,31.831999999999997,41.29,31.734,40.005,37.812
35.049,31.791,41.596000000000004,31.684,39.821999999999996,37.658
35.086999999999996,31.752,41.836999999999996,31.631,39.629,37.506
35.124,31.715,42.015,31.578000000000003,39.431,37.356
35.159,31.680999999999997,42.129,31.525,39.233000000000004,37.208
35.19,31.648000000000003,42.185,31.473000000000003,39.038000000000004,37.06
35.216,31.616,42.18600000000001,31.423000000000002,38.85,36.911
35.236999999999995,31.585,42.138000000000005,31.377,38.671,36.762
35.251,31.555,42.049,31.335,38.503,36.611
35.258,31.528000000000002,41.924,31.3,38.346,36.459
35.257,31.500999999999998,41.771,31.272,38.199,36.306
35.247,31.476,41.596000000000004,31.252,38.062,36.153
35.231,31.453000000000003,41.403,31.243000000000002,37.931999999999995,36.0
35.205999999999996,31.43,41.199,31.247,37.809,35.85
35.175,31.408,40.988,31.266,37.69,35.702
35.138000000000005,31.386999999999997,40.772,31.304000000000002,37.576,35.559
35.094,31.368000000000002,40.556,31.366,37.464,35.421
35.044000000000004,31.35,40.343,31.455,37.354,35.29
34.986999999999995,31.334,40.134,31.578000000000003,37.246,35.166
34.926,31.319000000000003,39.931999999999995,31.738000000000003,37.137,35.048
34.861,31.308000000000003,39.735,31.94,37.027,34.938
34.791,31.3,39.545,32.187,36.914,34.836
34.717,31.296999999999997,39.361999999999995,32.48,36.799,34.743
34.641,31.302,39.184,32.821,36.683,34.658
34.563,31.318,39.012,33.211,36.567,34.580999999999996
34.483000000000004,31.348000000000003,38.844,33.649,36.451,34.51
34.403,31.395,38.681,34.131,36.335,34.446999999999996
34.321999999999996,31.465999999999998,38.522,34.655,36.22,34.391
34.24,31.565,38.365,35.215,36.108000000000004,34.342
34.158,31.698,38.209,35.804,35.998000000000005,34.3
34.075,31.871,38.053000000000004,36.412,35.891,34.263000000000005
33.992,32.092,37.897,37.029,35.787,34.232
33.909,32.369,37.74,37.644,35.687,34.207
33.827,32.707,37.582,38.245,35.592,34.186
33.747,33.106,37.424,38.82,35.501999999999995,34.17
33.667,33.567,37.264,39.358000000000004,35.417,34.16
33.588,34.085,37.103,39.849000000000004,35.338,34.156
33.509,34.655,36.941,40.285,35.266,34.158
33.431999999999995,35.27,36.778,40.66,35.2,34.165
33.355,35.921,36.614000000000004,40.968999999999994,35.14,34.178000000000004
33.279,36.599000000000004,36.449,41.213,35.084,34.195
33.205,37.292,36.284,41.388999999999996,35.033,34.217
33.132,37.989000000000004,36.119,41.501000000000005,34.986,34.242
33.06,38.677,35.955,41.552,34.944,34.268
32.988,39.342,35.793,41.545,34.908,34.292
32.917,39.973,35.633,41.488,34.879,34.315
32.849000000000004,40.559,35.477,41.386,34.856,34.334
32.783,41.09,35.325,41.246,34.841,34.35
32.719,41.559,35.18,41.076,34.832,34.36
32.656,41.961000000000006,35.043,40.88,34.829,34.364000000000004
32.595,42.291000000000004,34.916,40.667,34.830999999999996,34.364000000000004
32.536,42.549,34.8,40.442,34.836999999999996,34.36
32.478,42.736999999999995,34.696999999999996,40.21,34.846,34.352
32.421,42.857,34.607,39.974000000000004,34.857,34.34
32.368,42.913000000000004,34.531,39.739000000000004,34.87,34.326
32.317,42.91,34.468,39.507,34.884,34.31
32.269,42.856,34.417,39.279,34.9,34.293
32.224000000000004,42.757,34.376999999999995,39.058,34.917,34.272
32.181,42.621,34.349000000000004,38.843,34.935,34.25
32.141,42.45399999999999,34.330999999999996,38.635,34.954,34.227
32.102,42.265,34.323,38.433,34.972,34.203
32.065,42.06100000000001,34.324,38.236999999999995,34.988,34.177
32.03,41.845,34.336,38.045,35.001,34.149
31.997,41.622,34.357,37.858000000000004,35.01,34.118
31.965,41.396,34.387,37.675,35.013000000000005,34.085
31.936,41.169,34.422,37.493,35.010999999999996,34.049
31.908,40.945,34.461999999999996,37.313,35.004,34.012
31.881999999999998,40.722,34.504,37.135,34.993,33.973
31.857,40.501999999999995,34.547,36.957,34.977,33.931
31.834,40.285,34.588,36.78,34.957,33.888000000000005
31.815,40.071,34.625,36.603,34.931,33.845
31.802,39.861,34.659,36.428000000000004,34.900999999999996,33.8
31.796999999999997,39.655,34.688,36.253,34.867,33.755
31.802,39.453,34.713,36.080999999999996,34.828,33.709
31.822,39.254,34.732,35.91,34.785,33.664
31.861,39.061,34.746,35.743,34.738,33.617
31.924,38.872,34.755,35.579,34.688,33.568000000000005
32.015,38.687,34.758,35.421,34.637,33.518
32.14,38.507,34.755,35.268,34.584,33.466
32.304,38.33,34.745,35.122,34.532,33.412
32.513000000000005,38.156,34.729,34.984,34.479,33.356
32.77,37.985,34.707,34.852,34.426,33.299
33.078,37.816,34.68,34.729,34.374,33.241
33.438,37.647,34.647,34.613,34.321999999999996,33.181999999999995
33.851,37.48,34.611,34.505,34.268,33.122
34.315,37.313,34.57,34.405,34.214,33.061
34.826,37.145,34.525999999999996,34.314,34.159,33.001
35.378,36.978,34.48,34.232,34.103,32.942
35.961999999999996,36.812,34.431999999999995,34.161,34.048,32.884
36.568000000000005,36.646,34.382,34.1,33.992,32.828
37.186,36.48,34.330999999999996,34.052,33.934,32.775
37.803000000000004,36.316,34.279,34.015,33.876,32.725
38.41,36.154,34.225,33.989000000000004,33.817,32.677
38.992,35.994,34.168,33.975,33.755,32.632
39.541,35.838,34.108000000000004,33.972,33.691,32.589
40.049,35.688,34.045,33.979,33.626,32.55
40.507,35.543,33.978,33.995,33.563,32.513000000000005
40.911,35.405,33.908,34.02,33.501,32.479
41.255,35.275999999999996,33.835,34.052,33.442,32.446999999999996
41.538000000000004,35.155,33.76,34.092,33.385999999999996,32.418
41.75899999999999,35.043,33.684,34.137,33.334,32.388000000000005
41.918,34.941,33.606,34.185,33.284,32.359
42.02,34.848,33.529,34.234,33.238,32.33
42.066,34.765,33.451,34.284,33.195,32.302
42.06100000000001,34.693000000000005,33.371,34.334,33.154,32.275
42.01,34.632,33.291,34.381,33.114000000000004,32.25
41.92,34.582,33.21,34.426,33.075,32.227
41.797,34.542,33.129,34.467,33.037,32.205999999999996
41.647,34.513000000000005,33.048,34.501999999999995,32.998000000000005,32.187
41.475,34.493,32.967,34.532,32.96,32.17
41.287,34.483000000000004,32.887,34.555,32.921,32.156
41.086000000000006,34.482,32.809,34.57,32.883,32.148
40.876,34.49,32.733000000000004,34.577,32.844,32.15
40.662,34.508,32.658,34.575,32.805,32.166
40.446,34.534,32.586,34.564,32.766999999999996,32.196999999999996
40.23,34.567,32.516999999999996,34.545,32.729,32.247
40.015,34.605,32.449,34.52,32.691,32.321999999999996
39.803000000000004,34.646,32.385,34.486999999999995,32.653,32.425
39.594,34.689,32.321999999999996,34.45,32.616,32.559
39.389,34.73,32.260999999999996,34.41,32.582,32.727
39.188,34.77,32.202,34.368,32.549,32.931999999999995
38.992,34.806,32.146,34.324,32.52,33.177
38.8,34.836999999999996,32.091,34.28,32.495,33.461999999999996
38.611999999999995,34.863,32.038000000000004,34.236,32.473,33.788000000000004
38.428000000000004,34.884,31.988000000000003,34.192,32.455,34.156
38.248000000000005,34.899,31.941,34.149,32.444,34.563
38.071,34.91,31.895,34.105,32.441,35.007
37.897,34.914,31.851,34.061,32.449,35.483000000000004
37.726,34.913000000000004,31.807,34.016999999999996,32.469,35.985
37.558,34.906,31.764,33.971,32.506,36.504
37.391999999999996,34.894,31.72,33.922,32.564,37.032
37.227,34.876,31.677,33.87,32.645,37.556999999999995
37.063,34.852,31.634,33.816,32.753,38.071
36.9,34.821999999999996,31.593000000000004,33.758,32.89,38.56
36.736,34.787,31.555,33.699,33.062,39.016
36.571999999999996,34.747,31.522,33.638000000000005,33.273,39.43
36.407,34.702,31.494,33.576,33.524,39.793
36.243,34.653,31.474,33.513000000000005,33.818000000000005,40.101
36.08,34.6,31.463,33.449,34.158,40.349000000000004
35.92,34.543,31.465,33.383,34.542,40.534
35.760999999999996,34.481,31.485,33.317,34.969,40.658
35.607,34.415,31.528000000000002,33.25,35.435,40.72
35.455999999999996,34.343,31.599,33.181999999999995,35.931,40.726
35.311,34.266,31.704,33.113,36.448,40.678000000000004
35.172,34.186,31.85,33.043,36.974000000000004,40.586
35.042,34.102,32.04,32.973,37.497,40.455
34.922,34.015,32.281,32.902,38.005,40.293
34.811,33.926,32.576,32.830999999999996,38.485,40.107
34.711999999999996,33.836999999999996,32.926,32.76,38.926,39.902
34.624,33.747,33.330999999999996,32.689,39.321,39.685
34.548,33.658,33.791,32.619,39.663000000000004,39.46
34.485,33.57,34.301,32.549,39.946999999999996,39.233000000000004
34.435,33.483000000000004,34.856,32.48,40.169000000000004,39.007
34.397,33.397,35.448,32.413000000000004,40.33,38.785
34.372,33.312,36.066,32.348,40.431,38.569
34.358000000000004,33.228,36.702,32.288000000000004,40.477,38.363
34.356,33.145,37.343,32.231,40.471,38.167
34.364000000000004,33.064,37.976,32.178000000000004,40.419000000000004,37.981
34.381,32.985,38.592,32.129,40.328,37.806
34.406,32.908,39.177,32.084,40.204,37.639
34.438,32.830999999999996,39.723,32.042,40.054,37.481
34.475,32.756,40.221,32.001999999999995,39.884,37.33
34.515,32.681999999999995,40.662,31.963,39.7,37.181999999999995
34.556,32.609,41.042,31.925,39.508,37.038000000000004
34.596,32.536,41.357,31.886999999999997,39.312,36.896
34.635,32.463,41.606,31.849,39.118,36.756
34.673,32.391,41.788000000000004,31.811999999999998,38.929,36.617
34.708,32.319,41.905,31.778000000000002,38.747,36.478
34.743,32.249,41.961000000000006,31.747,38.573,36.339
34.775,32.181,41.963,31.721999999999998,38.408,36.199
34.804,32.116,41.915,31.706999999999997,38.25,36.058
34.829,32.054,41.826,31.704,38.101,35.915
34.85,31.994,41.702,31.717,37.959,35.772
34.867,31.936999999999998,41.55,31.75,37.824,35.626999999999995
34.878,31.883000000000003,41.375,31.805999999999997,37.694,35.483000000000004
34.884,31.831999999999997,41.183,31.891,37.567,35.34
34.884,31.781999999999996,40.978,32.01,37.444,35.201
34.878,31.736,40.765,32.168,37.321999999999996,35.068000000000005
34.865,31.691999999999997,40.546,32.367,37.202,34.943000000000005
34.844,31.651999999999997,40.324,32.611,37.083,34.828
34.817,31.613000000000003,40.102,32.904,36.964,34.723
34.783,31.576999999999998,39.881,33.246,36.845,34.628
34.742,31.541999999999998,39.662,33.638000000000005,36.726,34.544000000000004
34.694,31.51,39.448,34.08,36.607,34.47
34.641,31.479,39.236,34.57,36.488,34.406
34.583,31.45,39.03,35.102,36.37,34.349000000000004
34.519,31.421999999999997,38.828,35.671,36.254,34.3
34.452,31.394000000000002,38.631,36.269,36.138000000000005,34.256
34.38,31.366999999999997,38.438,36.885999999999996,36.024,34.217
34.306,31.340999999999998,38.248000000000005,37.513000000000005,35.911,34.185
34.23,31.316,38.061,38.138000000000005,35.8,34.16
34.153,31.291999999999998,37.876,38.748000000000005,35.691,34.141
34.076,31.269000000000002,37.693000000000005,39.333,35.584,34.126999999999995
33.998000000000005,31.247,37.51,39.881,35.48,34.119
33.92,31.226,37.329,40.382,35.38,34.117
33.842,31.206999999999997,37.148,40.828,35.285,34.12
33.764,31.189,36.969,41.211999999999996,35.196,34.126999999999995
33.686,31.173000000000002,36.792,41.528999999999996,35.114000000000004,34.138000000000005
33.611,31.16,36.616,41.778,35.039,34.153
33.536,31.153000000000002,36.443000000000005,41.958,34.971,34.17
33.463,31.154,36.271,42.071000000000005,34.913000000000004,34.19
33.391999999999996,31.165,36.102,42.12,34.861,34.211999999999996
33.321,31.189,35.935,42.111999999999995,34.817,34.235
33.251,31.23,35.771,42.052,34.78,34.259
33.181,31.291999999999998,35.61,41.948,34.75,34.282
33.111999999999995,31.381,35.452,41.805,34.728,34.305
33.043,31.503,35.299,41.63,34.714,34.326
32.975,31.664,35.150999999999996,41.431000000000004,34.705999999999996,34.343
32.908,31.868000000000002,35.009,41.214,34.704,34.358000000000004
32.841,32.121,34.874,40.983999999999995,34.707,34.37
32.775,32.427,34.749,40.747,34.713,34.376999999999995
32.71,32.789,34.633,40.508,34.724000000000004,34.38
32.648,33.209,34.529,40.27,34.736999999999995,34.378
32.586999999999996,33.686,34.436,40.037,34.754,34.373000000000005
32.528,34.217,34.355,39.809,34.774,34.365
32.471,34.795,34.287,39.588,34.796,34.355
32.417,35.414,34.232,39.373000000000005,34.819,34.342
32.366,36.064,34.19,39.163000000000004,34.842,34.324
32.317,36.736,34.16,38.959,34.866,34.302
32.272,37.417,34.141999999999996,38.76,34.889,34.277
32.228,38.096,34.135,38.564,34.91,34.246
32.187,38.759,34.138000000000005,38.372,34.929,34.211999999999996
32.149,39.395,34.152,38.181,34.944,34.174
32.111999999999995,39.991,34.174,37.992,34.957,34.133
32.076,40.538000000000004,34.204,37.804,34.965,34.089
32.041,41.028,34.24,37.616,34.971,34.042
32.006,41.45399999999999,34.281,37.428000000000004,34.974000000000004,33.992
31.971999999999998,41.813,34.326,37.239000000000004,34.976,33.941
31.939,42.103,34.373000000000005,37.051,34.975,33.888000000000005
31.906999999999996,42.324,34.421,36.861999999999995,34.973,33.833
31.875,42.477,34.468,36.675,34.968,33.775999999999996
31.845,42.56399999999999,34.515,36.489000000000004,34.958,33.717
31.818,42.591,34.561,36.306,34.944,33.656
31.794,42.562,34.604,36.125,34.925,33.595
31.773000000000003,42.483999999999995,34.646,35.948,34.902,33.533
31.755,42.364,34.683,35.775,34.874,33.471
31.741,42.208999999999996,34.717,35.607,34.841,33.409
31.730999999999998,42.026,34.746,35.444,34.802,33.349000000000004
31.725,41.82,34.768,35.288000000000004,34.757,33.29
31.726,41.598,34.785,35.138000000000005,34.707,33.232
31.735,41.365,34.794000000000004,34.996,34.652,33.174
31.755,41.126999999999995,34.797,34.863,34.592,33.117
31.79,40.887,34.792,34.738,34.529,33.062
31.843000000000004,40.648,34.78,34.621,34.465,33.009
31.916999999999998,40.412,34.760999999999996,34.514,34.399,32.959
32.02,40.18,34.735,34.416,34.334,32.911
32.156,39.954,34.703,34.328,34.269,32.866
32.330999999999996,39.735,34.665,34.25,34.205,32.824
32.55,39.522,34.622,34.181,34.141999999999996,32.783
32.818000000000005,39.314,34.573,34.123000000000005,34.080999999999996,32.744
33.135999999999996,39.111999999999995,34.521,34.075,34.019,32.704
33.507,38.914,34.465,34.037,33.958,32.664
33.93,38.721,34.406,34.009,33.898,32.625
34.400999999999996,38.53,34.344,33.989000000000004,33.841,32.585
34.916,38.342,34.279,33.978,33.789,32.543
35.467,38.156,34.211999999999996,33.976,33.74,32.5
36.046,37.97,34.144,33.983000000000004,33.694,32.455
36.643,37.786,34.073,33.999,33.650999999999996,32.41
37.248000000000005,37.603,34.0,34.021,33.611,32.365
37.849000000000004,37.42,33.926,34.051,33.571999999999996,32.321999999999996
38.433,37.236999999999995,33.85,34.089,33.534,32.281
38.992,37.053000000000004,33.773,34.14,33.496,32.244
39.515,36.868,33.696999999999996,34.199,33.455999999999996,32.213
39.995,36.681999999999995,33.622,34.265,33.417,32.186
40.424,36.497,33.548,34.332,33.376999999999995,32.166
40.797,36.311,33.476,34.398,33.336999999999996,32.153
41.11,36.126,33.406,34.458,33.295,32.150999999999996
41.363,35.946,33.336999999999996,34.51,33.251999999999995,32.162
41.555,35.77,33.269,34.551,33.208,32.19
41.688,35.602,33.201,34.58,33.163000000000004,32.239000000000004
41.766000000000005,35.44,33.135,34.595,33.117,32.312
41.79,35.286,33.071,34.597,33.07,32.413000000000004
41.766000000000005,35.14,33.007,34.586,33.025,32.544000000000004
41.699,35.001,32.945,34.561,32.98,32.708
41.597,34.87,32.884,34.525999999999996,32.938,32.909
41.463,34.747,32.824,34.481,32.898,33.149
41.303999999999995,34.633,32.763000000000005,34.429,32.861,33.431
41.125,34.528,32.701,34.371,32.828,33.757
40.931,34.431999999999995,32.638000000000005,34.309,32.797,34.126999999999995
40.726,34.348,32.574,34.245,32.769,34.542
40.513000000000005,34.274,32.510999999999996,34.18,32.746,35.0
40.297,34.211999999999996,32.448,34.115,32.729,35.496
40.077,34.161,32.387,34.052,32.721,36.023
39.855,34.122,32.329,33.99,32.722,36.573
39.634,34.094,32.272,33.931,32.736999999999995,37.134
39.413000000000004,34.078,32.219,33.874,32.768,37.694
39.195,34.071999999999996,32.168,33.819,32.819,38.243
38.98,34.076,32.121,33.766999999999996,32.891,38.768
38.766999999999996,34.09,32.075,33.715,32.988,39.258
38.556999999999995,34.113,32.031,33.665,33.114000000000004,39.705999999999996
38.349000000000004,34.146,31.989,33.614000000000004,33.272,40.102
38.144,34.185,31.949,33.563,33.464,40.442
37.941,34.23,31.910999999999998,33.512,33.696,40.721
37.74,34.278,31.875,33.46,33.969,40.937
37.541,34.33,31.842,33.405,34.285,41.09
37.344,34.383,31.811999999999998,33.347,34.643,41.181999999999995
37.148,34.437,31.785,33.286,35.043,41.216
36.955,34.49,31.763,33.22,35.478,41.196000000000005
36.765,34.541,31.745,33.150999999999996,35.943000000000005,41.128
36.578,34.59,31.735,33.079,36.428000000000004,41.016999999999996
36.394,34.633,31.736,33.004,36.925,40.87
36.211999999999996,34.672,31.750999999999998,32.927,37.422,40.694
36.033,34.703,31.784000000000002,32.851,37.908,40.497
35.857,34.728,31.84,32.775,38.372,40.284
35.685,34.746,31.924,32.701,38.803000000000004,40.063
35.518,34.756,32.043,32.628,39.193000000000005,39.838
35.359,34.76,32.203,32.558,39.535,39.613
35.207,34.758,32.411,32.491,39.824,39.391
35.064,34.75,32.671,32.426,40.056,39.176
34.929,34.736999999999995,32.986,32.363,40.23,38.968
34.804,34.719,33.356,32.304,40.345,38.769
34.689,34.696,33.78,32.247,40.405,38.579
34.584,34.668,34.255,32.193000000000005,40.414,38.398
34.49,34.635999999999996,34.775,32.141,40.376999999999995,38.227
34.408,34.599000000000004,35.334,32.092,40.298,38.066
34.338,34.556999999999995,35.923,32.044000000000004,40.185,37.912
34.28,34.510999999999996,36.532,31.997,40.043,37.765
34.235,34.461,37.149,31.953000000000003,39.879,37.623000000000005
34.202,34.405,37.763000000000005,31.910999999999998,39.699,37.485
34.181999999999995,34.343,38.363,31.87,39.508,37.348
34.175,34.275,38.939,31.83,39.312,37.213
34.179,34.203,39.481,31.791,39.114000000000004,37.078
34.194,34.126999999999995,39.98,31.753,38.918,36.942
34.219,34.049,40.43,31.715999999999998,38.727,36.806999999999995
34.251999999999995,33.967,40.823,31.682,38.544000000000004,36.673
34.294000000000004,33.884,41.158,31.65,38.369,36.538000000000004
34.342,33.801,41.43,31.623,38.203,36.402
34.395,33.719,41.64,31.605,38.046,36.265
34.452,33.635,41.788999999999994,31.596999999999998,37.899,36.126
34.512,33.552,41.88,31.604,37.759,35.986999999999995
34.573,33.469,41.917,31.63,37.628,35.849000000000004
34.633,33.385999999999996,41.905,31.679000000000002,37.501999999999995,35.711999999999996
34.691,33.303000000000004,41.848,31.756999999999998,37.381,35.577
34.746,33.221,41.751999999999995,31.87,37.263000000000005,35.448
34.797,33.14,41.622,32.024,37.146,35.325
34.843,33.059,41.466,32.223,37.03,35.209
34.883,32.979,41.288000000000004,32.471,36.915,35.099000000000004
34.916,32.899,41.092,32.772,36.801,34.996
34.943000000000005,32.821,40.882,33.126999999999995,36.688,34.902
34.964,32.745,40.664,33.539,36.575,34.815
34.978,32.671,40.439,34.005,36.461999999999996,34.736
34.986,32.599000000000004,40.211999999999996,34.523,36.349000000000004,34.665
34.988,32.53,39.985,35.089,36.235,34.603
34.983000000000004,32.463,39.76,35.696,36.121,34.548
34.972,32.398,39.539,36.336,36.006,34.501999999999995
34.955999999999996,32.334,39.324,36.997,35.891999999999996,34.463
34.936,32.27,39.115,37.667,35.779,34.43
34.911,32.207,38.913000000000004,38.333,35.669000000000004,34.403
34.881,32.145,38.715,38.982,35.563,34.382
34.847,32.083,38.523,39.602,35.461,34.366
34.806999999999995,32.024,38.334,40.179,35.366,34.354
34.762,31.965,38.15,40.705,35.275999999999996,34.348
34.71,31.908,37.97,41.17100000000001,35.194,34.347
34.653,31.854,37.791,41.57,35.119,34.351
34.593,31.804000000000002,37.614000000000004,41.898999999999994,35.051,34.36
34.536,31.756999999999998,37.438,42.157,34.99,34.372
34.489000000000004,31.714000000000002,37.263000000000005,42.343,34.937,34.388000000000005
34.452,31.676,37.088,42.458999999999996,34.894,34.408
34.421,31.641,36.913000000000004,42.508,34.858000000000004,34.431999999999995
34.391999999999996,31.609,36.74,42.496,34.83,34.459
34.361999999999995,31.578000000000003,36.568000000000005,42.428000000000004,34.81,34.486999999999995
34.324,31.549,36.398,42.31399999999999,34.796,34.516
34.278,31.521,36.229,42.159,34.788000000000004,34.544000000000004
34.221,31.495,36.062,41.974,34.786,34.571999999999996
34.150999999999996,31.47,35.896,41.765,34.789,34.596
34.069,31.447,35.732,41.541000000000004,34.797,34.617
33.975,31.425,35.571,41.306999999999995,34.809,34.631
33.871,31.405,35.413000000000004,41.068000000000005,34.824,34.64
33.759,31.388,35.26,40.828,34.841,34.641999999999996
33.641,31.371,35.113,40.591,34.858000000000004,34.639
33.521,31.355,34.974000000000004,40.361,34.876999999999995,34.629
33.4,31.339000000000002,34.845,40.138000000000005,34.895,34.613
33.281,31.326,34.727,39.924,34.913000000000004,34.59
33.166,31.314,34.622,39.718,34.929,34.561
33.056999999999995,31.304000000000002,34.53,39.518,34.944,34.525999999999996
32.954,31.298000000000002,34.452,39.325,34.957,34.485
32.859,31.299,34.387,39.137,34.969,34.441
32.772,31.305999999999997,34.335,38.952,34.978,34.393
32.693000000000005,31.324,34.296,38.766999999999996,34.986,34.343
32.621,31.355999999999998,34.268,38.582,34.992,34.29
32.556999999999995,31.406999999999996,34.251,38.396,34.996,34.236
32.498000000000005,31.482,34.245,38.209,34.996,34.18
32.445,31.586,34.249,38.021,34.992,34.122
32.397,31.726,34.260999999999996,37.832,34.982,34.063
32.354,31.906,34.281,37.643,34.966,34.001
32.314,32.134,34.308,37.455,34.945,33.938
32.279,32.412,34.341,37.266999999999996,34.919000000000004,33.875
32.246,32.746,34.379,37.080999999999996,34.888000000000005,33.812
32.215,33.135,34.42,36.894,34.853,33.751
32.185,33.580999999999996,34.464,36.709,34.815,33.69
32.157,34.08,34.509,36.525,34.773,33.632
32.128,34.626999999999995,34.555,36.345,34.729,33.576
32.099000000000004,35.218,34.6,36.169000000000004,34.681999999999995,33.523
32.069,35.842,34.644,35.999,34.633,33.472
32.039,36.492,34.686,35.833,34.580999999999996,33.425
32.007,37.156,34.725,35.673,34.527,33.382
31.974,37.821,34.760999999999996,35.516999999999996,34.472,33.339
31.941,38.474000000000004,34.791,35.366,34.416,33.297
31.908,39.105,34.817,35.22,34.36,33.253
31.878,39.701,34.838,35.08,34.305,33.208
31.853,40.253,34.854,34.946999999999996,34.25,33.16
31.833000000000002,40.753,34.865,34.823,34.194,33.111
31.823,41.193999999999996,34.87,34.71,34.138000000000005,33.062
31.823,41.571000000000005,34.87,34.607,34.080999999999996,33.010999999999996
31.839000000000002,41.88,34.863,34.516,34.024,32.959
31.874000000000002,42.122,34.851,34.436,33.968,32.907
31.934,42.297,34.833,34.369,33.912,32.857
32.024,42.407,34.809,34.313,33.856,32.806999999999995
32.15,42.458,34.78,34.268,33.801,32.758
32.317,42.45399999999999,34.745,34.234,33.746,32.709
32.529,42.4,34.704,34.21,33.692,32.66
32.79,42.301,34.658,34.195,33.638000000000005,32.613
33.102,42.165,34.606,34.19,33.585,32.567
33.468,41.996,34.549,34.192,33.532,32.521
33.885,41.801,34.488,34.2,33.48,32.476
34.351,41.588,34.422,34.211999999999996,33.43,32.431
34.861,41.36,34.354,34.227,33.381,32.388000000000005
35.408,41.122,34.283,34.244,33.333,32.347
35.983000000000004,40.879,34.209,34.263000000000005,33.286,32.309
36.576,40.633,34.132,34.284,33.242,32.274
37.177,40.387,34.054,34.306,33.2,32.243
37.773,40.143,33.975,34.328,33.158,32.218
38.355,39.900999999999996,33.895,34.348,33.117,32.201
38.912,39.664,33.817,34.367,33.076,32.193000000000005
39.435,39.431,33.739000000000004,34.383,33.036,32.2
39.916,39.202,33.662,34.394,32.996,32.223
40.35,38.975,33.586,34.4,32.955999999999996,32.265
40.73,38.751999999999995,33.512,34.402,32.916,32.33
41.055,38.53,33.439,34.399,32.876,32.421
41.321999999999996,38.312,33.368,34.391,32.836999999999996,32.542
41.53,38.097,33.299,34.376999999999995,32.8,32.698
41.681000000000004,37.887,33.233000000000004,34.356,32.766999999999996,32.893
41.777,37.68,33.169000000000004,34.33,32.736999999999995,33.131
41.82,37.477,33.106,34.299,32.713,33.416
41.817,37.277,33.045,34.263000000000005,32.695,33.75
41.771,37.079,32.986,34.223,32.684,34.134
41.688,36.883,32.929,34.179,32.681999999999995,34.568000000000005
41.574,36.689,32.873000000000005,34.132,32.691,35.047
41.433,36.496,32.818000000000005,34.084,32.711999999999996,35.566
41.272,36.304,32.763000000000005,34.034,32.75,36.118
41.092,36.114000000000004,32.708,33.983000000000004,32.806999999999995,36.693000000000005
40.899,35.926,32.652,33.931999999999995,32.887,37.279
40.695,35.74,32.596,33.881,32.993,37.864000000000004
40.485,35.558,32.539,33.830999999999996,33.131,38.437
40.271,35.379,32.483000000000004,33.782,33.306999999999995,38.986
40.056,35.205,32.426,33.735,33.524,39.499
39.843,35.037,32.37,33.689,33.787,39.965
39.632,34.876,32.313,33.643,34.096,40.376
39.424,34.724000000000004,32.256,33.597,34.451,40.725
39.221,34.582,32.201,33.55,34.851,41.00899999999999
39.022,34.451,32.146,33.501,35.291,41.227
38.827,34.330999999999996,32.094,33.45,35.766,41.378
38.637,34.223,32.043,33.397,36.268,41.465
38.45,34.126999999999995,31.996,33.343,36.786,41.493
38.266,34.045,31.953000000000003,33.287,37.311,41.466
38.084,33.976,31.915,33.23,37.828,41.39
37.905,33.921,31.881999999999998,33.172,38.326,41.271
37.728,33.88,31.855999999999998,33.111999999999995,38.793,41.11600000000001
37.553000000000004,33.854,31.838,33.051,39.219,40.933
37.379,33.842,31.83,32.986999999999995,39.595,40.728
37.205999999999996,33.845,31.834,32.923,39.915,40.508
37.033,33.861999999999995,31.854,32.856,40.174,40.278
36.859,33.891,31.895,32.788000000000004,40.371,40.046
36.685,33.931,31.962,32.718,40.505,39.814
36.510999999999996,33.982,32.061,32.649,40.58,39.588
36.336,34.041,32.2,32.58,40.6,39.37
36.161,34.107,32.383,32.513000000000005,40.571,39.161
35.986,34.178000000000004,32.615,32.449,40.498000000000005,38.961999999999996
35.812,34.251999999999995,32.9,32.388000000000005,40.39,38.773
35.643,34.327,33.242,32.33,40.251999999999995,38.595
35.478,34.400999999999996,33.639,32.275999999999996,40.092,38.427
35.318000000000005,34.472,34.091,32.225,39.915,38.269
35.166,34.541,34.592,32.175,39.727,38.121
35.022,34.604,35.139,32.128,39.532,37.983000000000004
34.887,34.662,35.722,32.082,39.336,37.852
34.764,34.714,36.330999999999996,32.038000000000004,39.141999999999996,37.728
34.653,34.758,36.955,31.995,38.952,37.607
34.555,34.795,37.583,31.953000000000003,38.768,37.488
34.472,34.826,38.203,31.913,38.592,37.371
34.402,34.849000000000004,38.802,31.875,38.425,37.253
34.347,34.865,39.371,31.838,38.266,37.135999999999996
34.305,34.874,39.899,31.803,38.116,37.018
34.275,34.876999999999995,40.378,31.77,37.975,36.899
34.258,34.874,40.801,31.741,37.842,36.78
34.251999999999995,34.866,41.165,31.715,37.718,36.659
34.257,34.852,41.466,31.694000000000003,37.6,36.537
34.271,34.833,41.70399999999999,31.68,37.486999999999995,36.414
34.293,34.808,41.88,31.676,37.376999999999995,36.289
34.323,34.778,41.995,31.684,37.27,36.162
34.359,34.743,42.053999999999995,31.709,37.163000000000004,36.036
34.402,34.701,42.06100000000001,31.755,37.055,35.91
34.449,34.653,42.021,31.826999999999998,36.946,35.786
34.499,34.6,41.93899999999999,31.929000000000002,36.833,35.667
34.551,34.542,41.823,32.067,36.718,35.554
34.603,34.478,41.678000000000004,32.245,36.601,35.446999999999996
34.655,34.411,41.512,32.467,36.485,35.346
34.705,34.34,41.328,32.738,36.368,35.251999999999995
34.751999999999995,34.266999999999996,41.133,33.06,36.253,35.165
34.795,34.191,40.93,33.435,36.141,35.085
34.833,34.113,40.723,33.866,36.03,35.014
34.867,34.034,40.514,34.353,35.921,34.95
34.894,33.952,40.306999999999995,34.891,35.814,34.894
34.915,33.869,40.101,35.476,35.709,34.848
34.928000000000004,33.785,39.897,36.101,35.607,34.808
34.936,33.699,39.696,36.756,35.510999999999996,34.777
34.936,33.613,39.497,37.43,35.42,34.751
34.929,33.525999999999996,39.302,38.109,35.336999999999996,34.731
34.916,33.438,39.109,38.78,35.260999999999996,34.716
34.897,33.35,38.92,39.429,35.195,34.705999999999996
34.872,33.263000000000005,38.735,40.043,35.137,34.699
34.84,33.176,38.554,40.609,35.088,34.695
34.802,33.091,38.376,41.119,35.043,34.694
34.759,33.006,38.201,41.563,35.001,34.696
34.711,32.924,38.028,41.937,34.959,34.7
34.659,32.844,37.858000000000004,42.236999999999995,34.917,34.705
34.603,32.766999999999996,37.688,42.465,34.876999999999995,34.71
34.543,32.691,37.519,42.62,34.841,34.715
34.478,32.617,37.35,42.708,34.813,34.722
34.41,32.545,37.181,42.733000000000004,34.792,34.729
34.338,32.475,37.013000000000005,42.7,34.781,34.736
34.263000000000005,32.408,36.844,42.618,34.778,34.742
34.187,32.344,36.676,42.492,34.784,34.748000000000005
34.111,32.282,36.51,42.331,34.798,34.751999999999995
34.033,32.223,36.345,42.141000000000005,34.819,34.754
33.955,32.166,36.183,41.928999999999995,34.846,34.753
33.876999999999995,32.11,36.024,41.702,34.876999999999995,34.749
33.798,32.056,35.868,41.466,34.911,34.743
33.72,32.004,35.711999999999996,41.225,34.946,34.734
33.641999999999996,31.953000000000003,35.559,40.985,34.983000000000004,34.722
33.565,31.903000000000002,35.409,40.748000000000005,35.019,34.705999999999996
33.489000000000004,31.855999999999998,35.263000000000005,40.516,35.052,34.684
33.415,31.811,35.123000000000005,40.291,35.080999999999996,34.653
33.341,31.77,34.992,40.074,35.105,34.613
33.268,31.732,34.872,39.864000000000004,35.122,34.563
33.196,31.695999999999998,34.765,39.661,35.131,34.506
33.125,31.663,34.673,39.466,35.132,34.442
33.055,31.633000000000003,34.597,39.277,35.123000000000005,34.376
32.986,31.605,34.537,39.093,35.106,34.309
32.916,31.578000000000003,34.492,38.914,35.080999999999996,34.242
32.847,31.552,34.461999999999996,38.738,35.049,34.176
32.779,31.526,34.444,38.564,35.010999999999996,34.113
32.713,31.502,34.437,38.391,34.968,34.051
32.648,31.478,34.439,38.219,34.921,33.992
32.586,31.456,34.449,38.047,34.87,33.936
32.525999999999996,31.435,34.466,37.874,34.818000000000005,33.883
32.47,31.416999999999998,34.49,37.701,34.763000000000005,33.834
32.415,31.404,34.518,37.525999999999996,34.708,33.788000000000004
32.364000000000004,31.397,34.552,37.35,34.653,33.745
32.314,31.399,34.589,37.173,34.597,33.703
32.268,31.414,34.63,36.994,34.542,33.66
32.225,31.445999999999998,34.673,36.815,34.488,33.616
32.188,31.498,34.716,36.635999999999996,34.435,33.571
32.164,31.578000000000003,34.757,36.458,34.382,33.525
32.153,31.689,34.796,36.281,34.329,33.477
32.153,31.838,34.832,36.108000000000004,34.275,33.43
32.16,32.031,34.864000000000004,35.938,34.22,33.382
32.169000000000004,32.272,34.891,35.773,34.164,33.334
32.177,32.567,34.914,35.613,34.108000000000004,33.284
32.179,32.917,34.931999999999995,35.46,34.051,33.233000000000004
32.173,33.325,34.946999999999996,35.314,33.994,33.181
32.157,33.789,34.957,35.176,33.937,33.13
32.132,34.306999999999995,34.963,35.046,33.882,33.078
32.097,34.874,34.965,34.925,33.827,33.027
32.054,35.484,34.961999999999996,34.815,33.773,32.975
32.008,36.129,34.954,34.715,33.72,32.923
31.962,36.797,34.941,34.625,33.668,32.872
31.919,37.479,34.921,34.546,33.618,32.821999999999996
31.886,38.16,34.896,34.478,33.569,32.772
31.868000000000002,38.83,34.863,34.42,33.52,32.723
31.869,39.474000000000004,34.824,34.373000000000005,33.472,32.677
31.897,40.080999999999996,34.779,34.336,33.423,32.634
31.959,40.641999999999996,34.728,34.306999999999995,33.374,32.592
32.062,41.147,34.672,34.287,33.325,32.551
32.211,41.589,34.611,34.275,33.275999999999996,32.510999999999996
32.413000000000004,41.964,34.546,34.27,33.226,32.474000000000004
32.672,42.269,34.476,34.272,33.176,32.437
32.992,42.503,34.404,34.279,33.126999999999995,32.403
33.373000000000005,42.668,34.328,34.29,33.078,32.371
33.813,42.766999999999996,34.249,34.304,33.03,32.344
34.308,42.806000000000004,34.169000000000004,34.32,32.982,32.321999999999996
34.852,42.788999999999994,34.086999999999996,34.336,32.934,32.308
35.438,42.724,34.005,34.353,32.887,32.303000000000004
36.055,42.619,33.921,34.368,32.841,32.311
36.692,42.479,33.836999999999996,34.381,32.798,32.336999999999996
37.338,42.31100000000001,33.754,34.393,32.757,32.382
37.979,42.12,33.67,34.400999999999996,32.721,32.453
38.603,41.913000000000004,33.588,34.406,32.689,32.551
39.2,41.693000000000005,33.507,34.407,32.663000000000004,32.681999999999995
39.758,41.466,33.429,34.404,32.641999999999996,32.851
40.269,41.233999999999995,33.353,34.396,32.626999999999995,33.059
40.726,41.001000000000005,33.279,34.384,32.62,33.312
41.123999999999995,40.768,33.208,34.367,32.622,33.614000000000004
41.458999999999996,40.538000000000004,33.139,34.346,32.635999999999996,33.966
41.73,40.313,33.074,34.32,32.665,34.372
41.93600000000001,40.091,33.010999999999996,34.29,32.713,34.828
42.081,39.874,32.95,34.259,32.783,35.330999999999996
42.166000000000004,39.661,32.889,34.225,32.879,35.875
42.198,39.453,32.827,34.19,33.005,36.449
42.181999999999995,39.249,32.764,34.153,33.164,37.044000000000004
42.123999999999995,39.048,32.701,34.115,33.361,37.648
42.03,38.852,32.637,34.075,33.598,38.248000000000005
41.905,38.658,32.574,34.032,33.88,38.83
41.756,38.467,32.51,33.986,34.208,39.381
41.589,38.277,32.446999999999996,33.936,34.580999999999996,39.89
41.408,38.09,32.384,33.883,34.998000000000005,40.345
41.218999999999994,37.905,32.323,33.826,35.455,40.738
41.025,37.719,32.263000000000005,33.766,35.946,41.063
40.827,37.534,32.205999999999996,33.702,36.461999999999996,41.318999999999996
40.63,37.348,32.153,33.635,36.991,41.505
40.435,37.163000000000004,32.102,33.564,37.521,41.623999999999995
40.24,36.978,32.054,33.491,38.039,41.678000000000004
40.042,36.795,32.008,33.416,38.533,41.673
39.84,36.611999999999995,31.963,33.338,38.992,41.617
39.635999999999996,36.431999999999995,31.921,33.258,39.407,41.516999999999996
39.431999999999995,36.253,31.88,33.177,39.771,41.382
39.232,36.078,31.840999999999998,33.096,40.079,41.218
39.036,35.905,31.804000000000002,33.015,40.328,41.032
38.847,35.736999999999995,31.773000000000003,32.936,40.516,40.829
38.666,35.571999999999996,31.75,32.858000000000004,40.644,40.616
38.492,35.413000000000004,31.738000000000003,32.782,40.715,40.397
38.325,35.259,31.739,32.709,40.731,40.177
38.167,35.113,31.759,32.639,40.698,39.96
38.015,34.975,31.801,32.573,40.622,39.749
37.868,34.847,31.871,32.510999999999996,40.51,39.544000000000004
37.725,34.731,31.975,32.454,40.371,39.347
37.584,34.626999999999995,32.119,32.402,40.209,39.157
37.443000000000005,34.537,32.308,32.354,40.033,38.975
37.302,34.461,32.547,32.306999999999995,39.846,38.8
37.16,34.399,32.842,32.260999999999996,39.653,38.631
37.016,34.353,33.194,32.214,39.461,38.468
36.869,34.321999999999996,33.601,32.165,39.271,38.309
36.719,34.305,34.062,32.116,39.086,38.154
36.567,34.302,34.573,32.065,38.908,38.001999999999995
36.414,34.311,35.128,32.013000000000005,38.736,37.854
36.260999999999996,34.330999999999996,35.717,31.961,38.571999999999996,37.71
36.11,34.36,36.332,31.908,38.416,37.568000000000005
35.961999999999996,34.398,36.961,31.855,38.268,37.43
35.818000000000005,34.441,37.591,31.802,38.128,37.293
35.681,34.49,38.211999999999996,31.750999999999998,37.995,37.158
35.55,34.541,38.81,31.701,37.869,37.024
35.427,34.593,39.375,31.655,37.75,36.891
35.314,34.645,39.898,31.612,37.635999999999996,36.76
35.21,34.696999999999996,40.37,31.574,37.525999999999996,36.629
35.116,34.747,40.786,31.54,37.419000000000004,36.498000000000005
35.034,34.794000000000004,41.141999999999996,31.51,37.314,36.369
34.963,34.836999999999996,41.434,31.484,37.209,36.241
34.904,34.876999999999995,41.662,31.463,37.103,36.117
34.856,34.913000000000004,41.82899999999999,31.448,36.997,35.996
34.82,34.944,41.935,31.439,36.889,35.879
34.794000000000004,34.971,41.986000000000004,31.436999999999998,36.781,35.766
34.779,34.992,41.986999999999995,31.447,36.672,35.657
34.774,35.008,41.943000000000005,31.469,36.561,35.552
34.779,35.016999999999996,41.86,31.506999999999998,36.448,35.451
34.794000000000004,35.019,41.745,31.565,36.332,35.355
34.817,35.015,41.603,31.649,36.215,35.264
34.846,35.005,41.44,31.763,36.099000000000004,35.178000000000004
34.88,34.986999999999995,41.26,31.914,35.983000000000004,35.097
34.917,34.963,41.068999999999996,32.107,35.869,35.021
34.958,34.939,40.871,32.347,35.76,34.952
34.999,34.917,40.669000000000004,32.64,35.656,34.89
35.04,34.897,40.467,32.989000000000004,35.559,34.834
35.079,34.879,40.265,33.397,35.468,34.785
35.116,34.859,40.067,33.864000000000004,35.385,34.742
35.15,34.834,39.872,34.388000000000005,35.309,34.705
35.18,34.803000000000004,39.681,34.965,35.243,34.674
35.205,34.763000000000005,39.494,35.586999999999996,35.185,34.65
35.226,34.714,39.31,36.244,35.135,34.632
35.24,34.655,39.131,36.926,35.092,34.62
35.247,34.586999999999996,38.952,37.619,35.056999999999995,34.611999999999995
35.248000000000005,34.509,38.772,38.31,35.029,34.608000000000004
35.242,34.423,38.591,38.984,35.009,34.61
35.23,34.329,38.409,39.626999999999995,34.996,34.617
35.211999999999996,34.229,38.227,40.226,34.99,34.629
35.187,34.123000000000005,38.047,40.771,34.988,34.643
35.155,34.014,37.869,41.251999999999995,34.992,34.659
35.117,33.902,37.694,41.662,34.999,34.675
35.076,33.789,37.523,41.998000000000005,35.008,34.692
35.032,33.677,37.355,42.26,35.019,34.708
34.986,33.567,37.19,42.446999999999996,35.031,34.722
34.938,33.461,37.03,42.562,35.044000000000004,34.736
34.887,33.359,36.874,42.61,35.058,34.747
34.830999999999996,33.260999999999996,36.721,42.597,35.073,34.756
