Trial 1:0back,Trial 2:2back,Trial 3:3back,Trial 4:2back,Trial 5:3back,Trial 6:0back
35.06,34.912,35.699,36.559,36.759,34.422
35.051,34.907,35.692,36.516,36.734,34.412
35.039,34.903,35.685,36.477,36.705999999999996,34.404
35.025999999999996,34.9,35.677,36.442,36.676,34.396
35.012,34.897,35.668,36.411,36.645,34.39
34.997,34.895,35.66,36.385,36.614000000000004,34.385999999999996
34.982,34.893,35.650999999999996,36.361,36.584,34.383
34.966,34.89,35.641,36.34,36.555,34.381
34.949,34.887,35.629,36.319,36.527,34.38
34.933,34.885,35.617,36.299,36.501,34.376999999999995
34.916,34.89,35.603,36.278,36.478,34.375
34.9,34.908,35.586999999999996,36.255,36.457,34.372
34.884,34.938,35.57,36.231,36.438,34.369
34.868,34.977,35.552,36.205,36.422,34.366
34.853,35.021,35.535,36.177,36.409,34.363
34.838,35.067,35.516999999999996,36.146,36.399,34.359
34.825,35.108000000000004,35.499,36.113,36.393,34.354
34.813,35.144,35.482,36.079,36.388000000000005,34.349000000000004
34.803000000000004,35.17,35.464,36.044000000000004,36.387,34.342
34.795,35.184,35.446,36.009,36.387,34.333
34.79,35.185,35.428000000000004,35.974000000000004,36.39,34.323
34.787,35.173,35.41,35.94,36.395,34.311
34.788000000000004,35.149,35.391,35.908,36.4,34.298
34.79,35.113,35.372,35.876999999999995,36.406,34.284
34.793,35.068000000000005,35.352,35.848,36.412,34.27
34.796,35.015,35.332,35.819,36.417,34.257
34.797,34.957,35.314,35.792,36.42,34.246
34.796,34.898,35.296,35.765,36.421,34.236
34.792,34.839,35.279,35.739000000000004,36.419000000000004,34.228
34.786,34.783,35.264,35.714,36.416,34.221
34.778,34.732,35.249,35.69,36.411,34.214
34.768,34.687,35.235,35.668,36.404,34.21
34.757,34.649,35.223,35.647,36.395,34.207
34.746,34.619,35.211,35.626999999999995,36.384,34.205999999999996
34.736999999999995,34.596,35.2,35.609,36.372,34.207
34.729,34.58,35.19,35.591,36.357,34.211
34.724000000000004,34.57,35.181999999999995,35.575,36.341,34.219
34.721,34.567,35.174,35.561,36.324,34.231
34.719,34.569,35.169000000000004,35.548,36.305,34.249
34.719,34.578,35.165,35.537,36.285,34.274
34.719,34.592,35.162,35.528,36.264,34.308
34.719,34.611,35.16,35.521,36.241,34.352
34.718,34.635999999999996,35.157,35.516999999999996,36.218,34.406
34.715,34.667,35.154,35.515,36.193000000000005,34.472
34.71,34.704,35.149,35.516999999999996,36.166,34.547
34.703,34.747,35.143,35.521,36.139,34.634
34.695,34.797,35.135999999999996,35.527,36.11,34.73
34.686,34.853,35.129,35.534,36.08,34.836999999999996
34.674,34.916,35.122,35.542,36.05,34.955
34.66,34.986,35.116,35.55,36.02,35.082
34.644,35.062,35.11,35.559,35.991,35.218
34.625,35.143,35.103,35.566,35.964,35.361999999999995
34.606,35.23,35.095,35.573,35.938,35.512
34.586999999999996,35.321,35.086999999999996,35.579,35.914,35.666
34.57,35.415,35.078,35.583,35.891999999999996,35.821999999999996
34.554,35.51,35.068000000000005,35.586,35.871,35.977
34.54,35.606,35.056999999999995,35.586,35.853,36.129
34.528,35.702,35.045,35.583,35.834,36.275999999999996
34.519,35.798,35.032,35.576,35.815,36.415
34.514,35.893,35.021,35.564,35.795,36.544000000000004
34.512,35.986999999999995,35.01,35.55,35.774,36.662
34.515,36.079,35.001,35.533,35.751,36.766
34.521,36.167,34.992,35.513000000000005,35.726,36.855
34.53,36.251,34.984,35.491,35.699,36.929
34.54,36.329,34.976,35.467,35.671,36.986999999999995
34.55,36.399,34.968,35.441,35.641999999999996,37.029
34.559,36.461,34.961,35.413000000000004,35.611,37.056999999999995
34.564,36.513000000000005,34.954,35.384,35.580999999999996,37.07
34.567,36.556,34.948,35.355,35.55,37.07
34.565,36.586999999999996,34.943000000000005,35.325,35.521,37.059
34.56,36.608000000000004,34.939,35.296,35.495,37.038000000000004
34.551,36.618,34.938,35.266999999999996,35.472,37.008
34.539,36.617,34.938,35.239000000000004,35.453,36.973
34.524,36.605,34.941,35.211999999999996,35.438,36.935
34.506,36.583,34.946,35.186,35.427,36.896
34.486999999999995,36.553000000000004,34.952,35.162,35.42,36.857
34.466,36.515,34.958,35.14,35.416,36.819
34.446,36.47,34.963,35.121,35.414,36.78
34.429,36.419000000000004,34.967,35.105,35.414,36.74
34.414,36.363,34.97,35.091,35.416,36.699
34.402,36.305,34.971,35.08,35.42,36.657
34.391,36.246,34.97,35.069,35.423,36.613
34.383,36.187,34.968,35.06,35.428000000000004,36.568000000000005
34.375,36.132,34.964,35.051,35.431999999999995,36.521
34.367,36.08,34.96,35.04,35.434,36.472
34.361,36.033,34.955999999999996,35.028,35.435,36.422
34.354,35.993,34.951,35.014,35.434,36.371
34.348,35.958,34.946999999999996,34.998000000000005,35.431999999999995,36.321
34.342,35.93,34.943000000000005,34.981,35.431,36.273
34.335,35.908,34.939,34.964,35.43,36.226
34.327,35.893,34.935,34.946,35.433,36.181
34.317,35.884,34.931,34.929,35.439,36.137
34.306999999999995,35.881,34.926,34.913000000000004,35.448,36.096
34.295,35.88,34.921,34.897,35.461999999999996,36.056
34.284,35.882,34.915,34.883,35.479,36.019
34.272,35.882,34.908,34.87,35.501,35.983000000000004
34.260999999999996,35.88,34.9,34.858000000000004,35.527,35.949
34.25,35.874,34.891,34.844,35.558,35.916
34.241,35.863,34.882,34.83,35.593,35.883
34.231,35.848,34.872,34.815,35.633,35.85
34.222,35.827,34.863,34.8,35.678000000000004,35.817
34.213,35.802,34.853,34.787,35.727,35.783
34.205,35.774,34.844,34.775,35.78,35.75
34.199,35.745,34.834,34.766999999999996,35.836,35.716
34.194,35.715,34.825,34.762,35.893,35.684
34.192,35.686,34.816,34.76,35.951,35.653
34.191,35.658,34.806999999999995,34.760999999999996,36.009,35.623000000000005
34.192,35.632,34.797,34.764,36.065,35.594
34.194,35.61,34.787,34.77,36.118,35.568000000000005
34.196,35.59,34.774,34.777,36.167,35.544000000000004
34.199,35.573,34.76,34.786,36.21,35.524
34.201,35.559,34.744,34.795,36.247,35.507
34.202,35.548,34.728,34.803000000000004,36.278,35.494
34.201,35.539,34.711999999999996,34.811,36.302,35.484
34.198,35.531,34.696999999999996,34.817,36.319,35.477
34.193000000000005,35.524,34.683,34.821999999999996,36.329,35.473
34.186,35.516,34.67,34.826,36.332,35.473
34.179,35.51,34.66,34.828,36.329,35.479
34.171,35.503,34.654,34.828,36.32,35.492
34.163000000000004,35.498000000000005,34.654,34.827,36.306,35.51
34.157,35.494,34.662,34.824,36.287,35.533
34.150999999999996,35.491,34.677,34.82,36.264,35.556999999999995
34.147,35.489000000000004,34.701,34.814,36.236,35.580999999999996
34.144,35.488,34.734,34.808,36.205999999999996,35.605
34.141,35.488,34.777,34.802,36.172,35.626
34.138000000000005,35.488,34.829,34.796,36.135,35.643
34.135,35.488,34.89,34.79,36.096,35.656
34.132,35.489000000000004,34.96,34.783,36.053000000000004,35.665
34.13,35.489000000000004,35.038000000000004,34.775,36.008,35.669000000000004
34.129,35.49,35.124,34.766999999999996,35.959,35.67
34.13,35.491,35.217,34.759,35.907,35.669000000000004
34.132,35.494,35.315,34.75,35.852,35.666
34.135999999999996,35.498000000000005,35.415,34.739000000000004,35.795,35.661
34.14,35.503,35.510999999999996,34.729,35.736,35.654
34.145,35.51,35.604,34.717,35.675,35.644
34.149,35.516,35.695,34.705,35.613,35.631
34.152,35.522,35.783,34.692,35.552,35.617
34.154,35.528,35.87,34.679,35.49,35.6
34.153,35.534,35.957,34.665,35.43,35.580999999999996
34.149,35.539,36.042,34.65,35.372,35.56
34.141999999999996,35.543,36.126,34.635999999999996,35.318000000000005,35.538000000000004
34.133,35.546,36.207,34.621,35.268,35.515
34.121,35.547,36.283,34.608000000000004,35.224000000000004,35.491
34.108000000000004,35.546,36.353,34.595,35.184,35.469
34.093,35.541,36.413000000000004,34.586,35.15,35.446
34.078,35.533,36.464,34.579,35.122,35.423
34.065,35.521,36.503,34.574,35.099000000000004,35.399
34.055,35.507,36.531,34.571,35.08,35.373000000000005
34.051,35.49,36.549,34.57,35.067,35.347
34.055,35.472,36.558,34.57,35.056999999999995,35.32
34.069,35.452,36.559,34.571,35.05,35.294000000000004
34.095,35.431999999999995,36.553000000000004,34.571999999999996,35.046,35.266999999999996
34.137,35.412,36.54,34.571999999999996,35.044000000000004,35.24
34.196,35.391999999999996,36.522,34.571,35.044000000000004,35.214
34.277,35.372,36.5,34.568000000000005,35.046,35.188
34.382,35.352,36.474000000000004,34.564,35.049,35.162
34.512,35.333,36.445,34.556999999999995,35.055,35.135999999999996
34.668,35.315,36.416,34.549,35.062,35.109
34.849000000000004,35.296,36.385,34.538000000000004,35.07,35.08
35.051,35.279,36.355,34.525999999999996,35.080999999999996,35.049
35.274,35.264,36.326,34.514,35.093,35.016999999999996
35.512,35.249,36.299,34.501,35.107,34.984
35.760999999999996,35.235,36.274,34.489000000000004,35.123000000000005,34.95
36.016,35.221,36.251,34.477,35.14,34.915
36.272,35.207,36.23,34.467,35.159,34.88
36.525999999999996,35.194,36.21,34.458,35.178000000000004,34.847
36.771,35.181,36.19,34.45,35.199,34.814
37.004,35.168,36.17,34.442,35.22,34.783
37.22,35.156,36.15,34.434,35.24,34.754
37.416,35.146,36.132,34.427,35.26,34.726
37.59,35.139,36.115,34.419000000000004,35.279,34.7
37.739000000000004,35.135,36.101,34.412,35.295,34.676
37.864000000000004,35.135,36.09,34.405,35.309,34.654
37.964,35.138000000000005,36.08,34.4,35.319,34.634
38.039,35.143,36.071,34.398,35.326,34.616
38.092,35.149,36.063,34.4,35.33,34.599000000000004
38.122,35.156,36.053000000000004,34.408,35.329,34.584
38.134,35.162,36.042,34.424,35.325,34.57
38.126999999999995,35.167,36.028,34.449,35.317,34.556
38.106,35.169000000000004,36.010999999999996,34.484,35.306,34.543
38.071,35.168,35.991,34.531,35.291,34.53
38.025999999999996,35.164,35.969,34.589,35.273,34.516999999999996
37.973,35.157,35.946,34.659,35.251999999999995,34.504
37.914,35.148,35.923,34.742,35.229,34.491
37.851,35.137,35.900999999999996,34.835,35.204,34.478
37.785,35.125,35.881,34.939,35.177,34.466
37.717,35.111999999999995,35.861999999999995,35.052,35.149,34.453
37.648,35.099000000000004,35.843,35.173,35.122,34.441
37.579,35.086,35.826,35.299,35.094,34.427
37.510999999999996,35.074,35.809,35.429,35.067,34.413000000000004
37.445,35.062,35.792,35.563,35.041,34.398
37.384,35.051,35.775,35.696999999999996,35.016999999999996,34.384
37.327,35.041,35.76,35.829,34.994,34.37
37.277,35.03,35.747,35.959,34.974000000000004,34.357
37.234,35.02,35.736999999999995,36.083,34.955,34.345
37.198,35.012,35.728,36.201,34.939,34.335
37.17,35.004,35.721,36.31,34.925,34.326
37.15,34.998000000000005,35.714,36.41,34.914,34.319
37.135,34.993,35.707,36.498000000000005,34.904,34.313
37.126,34.989000000000004,35.7,36.575,34.895,34.306999999999995
37.122,34.986999999999995,35.693000000000005,36.639,34.888000000000005,34.301
37.122,34.985,35.686,36.689,34.882,34.296
37.125,34.984,35.679,36.724000000000004,34.875,34.29
37.131,34.983000000000004,35.673,36.744,34.867,34.284
37.138000000000005,34.983000000000004,35.669000000000004,36.748000000000005,34.858000000000004,34.279
37.144,34.982,35.665,36.739000000000004,34.847,34.274
37.149,34.982,35.663000000000004,36.719,34.834,34.27
37.150999999999996,34.983000000000004,35.662,36.69,34.819,34.268
37.149,34.984,35.663000000000004,36.655,34.803000000000004,34.266
37.141,34.985,35.663000000000004,36.613,34.787,34.266999999999996
37.128,34.986,35.662,36.568000000000005,34.771,34.269
37.109,34.985,35.661,36.52,34.756,34.272
37.086,34.984,35.659,36.472,34.742,34.277
37.059,34.981,35.657,36.423,34.73,34.283
37.028,34.976,35.654,36.376,34.72,34.289
36.994,34.97,35.650999999999996,36.332,34.713,34.295
36.957,34.961999999999996,35.647,36.291,34.71,34.3
36.917,34.954,35.643,36.254,34.708,34.306
36.874,34.945,35.64,36.221,34.708,34.311
36.83,34.937,35.637,36.191,34.709,34.316
36.785,34.928000000000004,35.635,36.163000000000004,34.71,34.321
36.741,34.921,35.632,36.138000000000005,34.71,34.325
36.699,34.913000000000004,35.628,36.114000000000004,34.708,34.328
36.66,34.905,35.624,36.091,34.704,34.33
36.626,34.897,35.618,36.069,34.698,34.330999999999996
36.596,34.888000000000005,35.61,36.048,34.69,34.33
36.57,34.879,35.601,36.025999999999996,34.68,34.327
36.549,34.869,35.589,36.005,34.668,34.321
36.53,34.86,35.576,35.984,34.656,34.313
36.516,34.85,35.562,35.964,34.643,34.302
36.504,34.84,35.547,35.944,34.63,34.291
36.495,34.83,35.531,35.925,34.617,34.278
36.488,34.818000000000005,35.514,35.908,34.605,34.266
36.482,34.806999999999995,35.496,35.891999999999996,34.594,34.254
36.479,34.797,35.478,35.876999999999995,34.585,34.241
36.477,34.787,35.459,35.863,34.577,34.228
36.478,34.779,35.44,35.85,34.571999999999996,34.214
36.481,34.773,35.419000000000004,35.836999999999996,34.568000000000005,34.201
36.485,34.766999999999996,35.397,35.823,34.566,34.189
36.491,34.762,35.373000000000005,35.809,34.565,34.178000000000004
36.498000000000005,34.757,35.35,35.795,34.565,34.167
36.504,34.754,35.327,35.781,34.567,34.156
36.51,34.753,35.305,35.768,34.569,34.143
36.514,34.753,35.285,35.755,34.571999999999996,34.129
36.515,34.754,35.268,35.741,34.574,34.113
36.513000000000005,34.758,35.251,35.726,34.576,34.096
36.507,34.764,35.236999999999995,35.709,34.578,34.077
36.499,34.772,35.224000000000004,35.689,34.579,34.056
36.489000000000004,34.779,35.211999999999996,35.668,34.579,34.035
36.477,34.784,35.201,35.645,34.577,34.014
36.464,34.785,35.191,35.62,34.574,33.993
36.448,34.781,35.181999999999995,35.596,34.568000000000005,33.973
36.431999999999995,34.773,35.173,35.571,34.561,33.955999999999996
36.415,34.759,35.165,35.548,34.551,33.943000000000005
36.398,34.742,35.158,35.527,34.54,33.933
36.38,34.722,35.152,35.508,34.527,33.927
36.361999999999995,34.7,35.148,35.49,34.514,33.926
36.343,34.678000000000004,35.146,35.475,34.501,33.93
36.324,34.657,35.143,35.464,34.488,33.939
36.305,34.639,35.141,35.455999999999996,34.476,33.955999999999996
36.285,34.626999999999995,35.137,35.451,34.465,33.98
36.266,34.622,35.132,35.448,34.454,34.015
36.246,34.623000000000005,35.126,35.449,34.443000000000005,34.059
36.225,34.634,35.118,35.451,34.431999999999995,34.114000000000004
36.203,34.654,35.11,35.455,34.42,34.18
36.18,34.683,35.099000000000004,35.46,34.409,34.256
36.155,34.722,35.088,35.466,34.398,34.343
36.129,34.77,35.076,35.472,34.388000000000005,34.441
36.101,34.828,35.064,35.478,34.38,34.55
36.071999999999996,34.896,35.053000000000004,35.484,34.372,34.669000000000004
36.044000000000004,34.972,35.043,35.489000000000004,34.366,34.799
36.016,35.056,35.034,35.493,34.361,34.937
35.99,35.146,35.025999999999996,35.497,34.358000000000004,35.084
35.966,35.241,35.019,35.5,34.356,35.236999999999995
35.942,35.341,35.013000000000005,35.501999999999995,34.354,35.395
35.92,35.444,35.007,35.504,34.352,35.556999999999995
35.898,35.549,35.001999999999995,35.506,34.351,35.719
35.878,35.656,34.997,35.508,34.351,35.88
35.858000000000004,35.763000000000005,34.992,35.509,34.349000000000004,36.038000000000004
35.841,35.869,34.986999999999995,35.508,34.348,36.191
35.825,35.973,34.982,35.504,34.345,36.336
35.809,36.074,34.977,35.498000000000005,34.342,36.473
35.793,36.17,34.972,35.488,34.339,36.599000000000004
35.778,36.26,34.967,35.474000000000004,34.336,36.713
35.762,36.342,34.961999999999996,35.458,34.333,36.813
35.746,36.415,34.958,35.438,34.329,36.9
35.731,36.479,34.953,35.416,34.325,36.971
35.717,36.533,34.948,35.393,34.319,37.028
35.703,36.576,34.941,35.367,34.312,37.071999999999996
35.689,36.609,34.934,35.341,34.305,37.102
35.675,36.632,34.924,35.315,34.3,37.121
35.66,36.645,34.914,35.289,34.297,37.129
35.643,36.649,34.902,35.264,34.297,37.126999999999995
35.624,36.644,34.889,35.24,34.298,37.117
35.602,36.63,34.876999999999995,35.217,34.3,37.1
35.579,36.609,34.866,35.193000000000005,34.302,37.076
35.555,36.582,34.856,35.17,34.303000000000004,37.046
35.531,36.55,34.849000000000004,35.145,34.302,37.012
35.509,36.513000000000005,34.843,35.121,34.3,36.974000000000004
35.486999999999995,36.473,34.839,35.096,34.295,36.933
35.466,36.429,34.835,35.07,34.288000000000004,36.89
35.446,36.383,34.832,35.046,34.28,36.847
35.427,36.334,34.835,35.022,34.269,36.804
35.411,36.285,34.85,34.999,34.257,36.763000000000005
35.398,36.236,34.876999999999995,34.979,34.243,36.723
35.388000000000005,36.188,34.914,34.96,34.229,36.685
35.38,36.143,34.958,34.943000000000005,34.213,36.649
35.375,36.1,35.003,34.929,34.196999999999996,36.615
35.37,36.062,35.045,34.917,34.181,36.582
35.366,36.029,35.080999999999996,34.908,34.166,36.55
35.361999999999995,35.999,35.105,34.902,34.152,36.518
35.359,35.974000000000004,35.117,34.898,34.14,36.486999999999995
35.356,35.954,35.115,34.895,34.13,36.455999999999996
35.355,35.937,35.098,34.891999999999996,34.123000000000005,36.424
35.354,35.922,35.069,34.888000000000005,34.119,36.391
35.354,35.909,35.028,34.883,34.117,36.358000000000004
35.355,35.897,34.978,34.876999999999995,34.117,36.325
35.356,35.885999999999996,34.923,34.869,34.119,36.292
35.356,35.876,34.865,34.859,34.123000000000005,36.259
35.355,35.867,34.806999999999995,34.848,34.126999999999995,36.225
35.353,35.859,34.751,34.835,34.135,36.192
35.351,35.853,34.699,34.82,34.149,36.158
35.347,35.847,34.654,34.804,34.173,36.124
35.343,35.84,34.616,34.789,34.203,36.09
35.338,35.834,34.586,34.774,34.238,36.055
35.330999999999996,35.828,34.564,34.760999999999996,34.273,36.021
35.323,35.82,34.549,34.749,34.305,35.988
35.314,35.811,34.542,34.739000000000004,34.330999999999996,35.955999999999996
35.303000000000004,35.799,34.541,34.731,34.348,35.926
35.291,35.787,34.546,34.725,34.355,35.897
35.278,35.773,34.558,34.721,34.351,35.869
35.264,35.757,34.576,34.718,34.336,35.842
35.249,35.739000000000004,34.6,34.716,34.312,35.816
35.232,35.72,34.63,34.715,34.281,35.792
35.215,35.699,34.664,34.715,34.246,35.77
35.196999999999996,35.678000000000004,34.703,34.715,34.211,35.751
35.18,35.655,34.748000000000005,34.714,34.18,35.734
35.164,35.633,34.8,34.713,34.159,35.719
35.15,35.611999999999995,34.857,34.71,34.15,35.705
35.139,35.592,34.921,34.708,34.159,35.694
35.132,35.576,34.99,34.704,34.188,35.686
35.126999999999995,35.563,35.065,34.699,34.241,35.68
35.123000000000005,35.554,35.144,34.693000000000005,34.318000000000005,35.677
35.121,35.549,35.228,34.686,34.421,35.678000000000004
35.116,35.546,35.315,34.679,34.549,35.68
35.109,35.547,35.405,34.673,34.702,35.685
35.1,35.549,35.495,34.666,34.878,35.689
35.088,35.554,35.586,34.659,35.074,35.694
35.074,35.559,35.677,34.652,35.287,35.699
35.056999999999995,35.564,35.765,34.645,35.514,35.705
35.038000000000004,35.567,35.851,34.639,35.749,35.711999999999996
35.016999999999996,35.568000000000005,35.931999999999995,34.632,35.988,35.719
34.996,35.567,36.007,34.626,36.227,35.727
34.976,35.564,36.074,34.621,36.46,35.734
34.958,35.56,36.132,34.616,36.684,35.74
34.942,35.554,36.181,34.613,36.894,35.744
34.928000000000004,35.548,36.22,34.609,37.088,35.748000000000005
34.916,35.543,36.25,34.607,37.262,35.75
34.907,35.54,36.271,34.604,37.416,35.75
34.899,35.538000000000004,36.283,34.603,37.547,35.747
34.893,35.538000000000004,36.286,34.601,37.656,35.741
34.888000000000005,35.539,36.283,34.6,37.743,35.731
34.883,35.542,36.274,34.6,37.808,35.717
34.876999999999995,35.545,36.260999999999996,34.599000000000004,37.852,35.702
34.871,35.547,36.242,34.599000000000004,37.876999999999995,35.685
34.863,35.548,36.218,34.599000000000004,37.883,35.667
34.855,35.546,36.19,34.599000000000004,37.874,35.647
34.845,35.543,36.159,34.597,37.85,35.626999999999995
34.834,35.535,36.125,34.594,37.814,35.606
34.821999999999996,35.525,36.09,34.589,37.768,35.585
34.809,35.510999999999996,36.054,34.583,37.713,35.565
34.797,35.496,36.016999999999996,34.577,37.650999999999996,35.545
34.783,35.479,35.98,34.57,37.584,35.527
34.77,35.461,35.945,34.562,37.513000000000005,35.509
34.755,35.442,35.911,34.554,37.442,35.492
34.74,35.424,35.878,34.546,37.371,35.475
34.725,35.407,35.849000000000004,34.537,37.301,35.457
34.71,35.39,35.821999999999996,34.528,37.235,35.438
34.695,35.375,35.798,34.518,37.172,35.418
34.681,35.36,35.777,34.508,37.113,35.396
34.668,35.347,35.758,34.497,37.056999999999995,35.374
34.655,35.334,35.74,34.486,37.004,35.352
34.641999999999996,35.321,35.723,34.474000000000004,36.955999999999996,35.328
34.63,35.308,35.705999999999996,34.461999999999996,36.911,35.304
34.619,35.296,35.688,34.449,36.871,35.279
34.611999999999995,35.284,35.667,34.437,36.834,35.253
34.608000000000004,35.272,35.645,34.426,36.802,35.225
34.608000000000004,35.26,35.62,34.415,36.772,35.196
34.614000000000004,35.249,35.594,34.405,36.746,35.166
34.626999999999995,35.236999999999995,35.564,34.397,36.721,35.135
34.649,35.226,35.534,34.39,36.698,35.106
34.681999999999995,35.216,35.501999999999995,34.384,36.675,35.078
34.728,35.205999999999996,35.47,34.381,36.652,35.053000000000004
34.786,35.196,35.439,34.38,36.628,35.031
34.859,35.186,35.409,34.38,36.603,35.012
34.946,35.176,35.381,34.382,36.576,34.995
35.046,35.167,35.354,34.387,36.548,34.982
35.158,35.157,35.33,34.395,36.519,34.972
35.279,35.148,35.306999999999995,34.406,36.49,34.965
35.409,35.138000000000005,35.285,34.423,36.463,34.961
35.545,35.129,35.265,34.446999999999996,36.437,34.958
35.685,35.121,35.245,34.479,36.413000000000004,34.957
35.828,35.114000000000004,35.227,34.52,36.391999999999996,34.955999999999996
35.973,35.109,35.21,34.569,36.373000000000005,34.955
36.118,35.105,35.196,34.628,36.356,34.953
36.26,35.101,35.184,34.698,36.342,34.951
36.396,35.1,35.176,34.779,36.329,34.946999999999996
36.525999999999996,35.1,35.173,34.871,36.318000000000005,34.942
36.645,35.101,35.175,34.973,36.306,34.935
36.754,35.104,35.181999999999995,35.086,36.294000000000004,34.925
36.85,35.108000000000004,35.195,35.208,36.282,34.912
36.933,35.111,35.211,35.336999999999996,36.27,34.897
37.004,35.114000000000004,35.229,35.47,36.259,34.881
37.062,35.115,35.25,35.604,36.248000000000005,34.868
37.107,35.116,35.271,35.738,36.239000000000004,34.864000000000004
37.141,35.113,35.292,35.868,36.231,34.87
37.163000000000004,35.109,35.312,35.991,36.223,34.884
37.173,35.102,35.330999999999996,36.105,36.217,34.905
37.173,35.093,35.349000000000004,36.209,36.213,34.927
37.162,35.083,35.366,36.301,36.21,34.949
37.143,35.071999999999996,35.381,36.381,36.21,34.966
37.115,35.06,35.395,36.446999999999996,36.211999999999996,34.977
37.080999999999996,35.048,35.407,36.501,36.216,34.979
37.041,35.036,35.416,36.543,36.222,34.971
36.996,35.025,35.421,36.573,36.231,34.953
36.948,35.014,35.423,36.592,36.241,34.928000000000004
36.898,35.005,35.422,36.601,36.251,34.896
36.849000000000004,34.996,35.417,36.599000000000004,36.263000000000005,34.859
36.802,34.986999999999995,35.409,36.588,36.273,34.82
36.759,34.978,35.399,36.568000000000005,36.283,34.78
36.721,34.97,35.387,36.541,36.291,34.74
36.688,34.961999999999996,35.375,36.508,36.297,34.702
36.659,34.955999999999996,35.363,36.469,36.3,34.667
36.635,34.951,35.35,36.425,36.301,34.637
36.613,34.948,35.336,36.378,36.298,34.613
36.593,34.948,35.321999999999996,36.328,36.291,34.594
36.575,34.949,35.306999999999995,36.277,36.28,34.58
36.559,34.95,35.293,36.226,36.264,34.571
36.546,34.951,35.279,36.175,36.246,34.567
36.536,34.952,35.265,36.126,36.224000000000004,34.565
36.527,34.953,35.251999999999995,36.08,36.2,34.565
36.519,34.954,35.238,36.037,36.175,34.566
36.512,34.953,35.224000000000004,35.998000000000005,36.148,34.568000000000005
36.504,34.952,35.209,35.961999999999996,36.121,34.57
36.494,34.95,35.193000000000005,35.931,36.093,34.571999999999996
36.482,34.946999999999996,35.176,35.904,36.065,34.571999999999996
36.467,34.943000000000005,35.157,35.881,36.037,34.571
36.449,34.937,35.138000000000005,35.861999999999995,36.009,34.568000000000005
36.429,34.929,35.117,35.847,35.982,34.563
36.406,34.919000000000004,35.096,35.835,35.955,34.556
36.381,34.908,35.073,35.825,35.929,34.546
36.353,34.896,35.049,35.816,35.904,34.535
36.321999999999996,34.883,35.025999999999996,35.806,35.879,34.523
36.289,34.87,35.001999999999995,35.796,35.855,34.51
36.255,34.857,34.979,35.785,35.832,34.496
36.22,34.845,34.957,35.773,35.81,34.481
36.185,34.834,34.934,35.759,35.788000000000004,34.465
36.150999999999996,34.824,34.911,35.743,35.768,34.446999999999996
36.119,34.815,34.889,35.726,35.748000000000005,34.428000000000004
36.089,34.805,34.867,35.705999999999996,35.728,34.408
36.062,34.796,34.846,35.684,35.708,34.387
36.037,34.787,34.826,35.66,35.688,34.367
36.014,34.777,34.808,35.633,35.666,34.348
35.994,34.765,34.791,35.604,35.644,34.33
35.978,34.751,34.775999999999996,35.574,35.621,34.315
35.966,34.736,34.762,35.544000000000004,35.597,34.302
35.958,34.72,34.75,35.515,35.573,34.289
35.954,34.704,34.739000000000004,35.486999999999995,35.55,34.278
35.955,34.686,34.731,35.461,35.527,34.268
35.958,34.67,34.725,35.438,35.504,34.26
35.961999999999996,34.654,34.72,35.418,35.483000000000004,34.254
35.968,34.64,34.717,35.400999999999996,35.461,34.251
35.975,34.629,34.715,35.385999999999996,35.44,34.25
35.983000000000004,34.621,34.714,35.374,35.419000000000004,34.253
35.992,34.616,34.714,35.365,35.399,34.260999999999996
36.001,34.614000000000004,34.714,35.357,35.38,34.274
36.010999999999996,34.613,34.714,35.352,35.361,34.294000000000004
36.021,34.613,34.714,35.348,35.343,34.323
36.03,34.613,34.714,35.345,35.325,34.36
36.037,34.613,34.713,35.343,35.308,34.408
36.042,34.613,34.711,35.342,35.291,34.467
36.045,34.611999999999995,34.71,35.34,35.275,34.538000000000004
36.046,34.611999999999995,34.709,35.339,35.26,34.623000000000005
36.045,34.611,34.708,35.336999999999996,35.246,34.721
36.042,34.61,34.705999999999996,35.336,35.232,34.832
36.039,34.61,34.705,35.335,35.22,34.957
36.034,34.611999999999995,34.703,35.335,35.209,35.095
36.028,34.618,34.701,35.334,35.199,35.243
36.02,34.631,34.698,35.334,35.191,35.400999999999996
36.010999999999996,34.653,34.696,35.335,35.185,35.567
36.0,34.685,34.694,35.336,35.18,35.739000000000004
35.986999999999995,34.728,34.692,35.336999999999996,35.176,35.915
35.972,34.783,34.69,35.336999999999996,35.173,36.091
35.953,34.85,34.688,35.338,35.171,36.264
35.931999999999995,34.928000000000004,34.686,35.338,35.167,36.431999999999995
35.907,35.014,34.684,35.336999999999996,35.163000000000004,36.59
35.881,35.108000000000004,34.681,35.335,35.157,36.738
35.852,35.208,34.678000000000004,35.333,35.15,36.873000000000005
35.821999999999996,35.312,34.675,35.330999999999996,35.141,36.993
35.791,35.419000000000004,34.671,35.327,35.129,37.095
35.759,35.527,34.667,35.323,35.116,37.18
35.728,35.635999999999996,34.663000000000004,35.317,35.1,37.247
35.698,35.744,34.66,35.309,35.083,37.297
35.669000000000004,35.851,34.659,35.299,35.064,37.33
35.641999999999996,35.955,34.659,35.286,35.044000000000004,37.349000000000004
35.616,36.054,34.659,35.27,35.025,37.354
35.591,36.147,34.659,35.25,35.006,37.347
35.568000000000005,36.231,34.659,35.229,34.989000000000004,37.33
35.546,36.306999999999995,34.658,35.205,34.974000000000004,37.305
35.527,36.372,34.657,35.18,34.963,37.274
35.510999999999996,36.426,34.656,35.154,34.955,37.239000000000004
35.497,36.468,34.653,35.126,34.949,37.201
35.486,36.499,34.649,35.099000000000004,34.946,37.16
35.478,36.518,34.644,35.073,34.945,37.118
35.471,36.525999999999996,34.638000000000005,35.048,34.946,37.075
35.467,36.525,34.631,35.025999999999996,34.948,37.032
35.463,36.515,34.624,35.006,34.95,36.989000000000004
35.46,36.496,34.618,34.989000000000004,34.953,36.946999999999996
35.458,36.471,34.611999999999995,34.975,34.954,36.906
35.454,36.44,34.606,34.964,34.955,36.865
35.449,36.403,34.6,34.955,34.953,36.823
35.442,36.361999999999995,34.594,34.949,34.95,36.781
35.433,36.317,34.588,34.943000000000005,34.945,36.738
35.421,36.272,34.582,34.939,34.939,36.696
35.405,36.227,34.576,34.934,34.931,36.654
35.387,36.183,34.571999999999996,34.928000000000004,34.923,36.613
35.366,36.141,34.569,34.921,34.914,36.574
35.342,36.103,34.568000000000005,34.913000000000004,34.905,36.535
35.318000000000005,36.068000000000005,34.568000000000005,34.903,34.896,36.497
35.294000000000004,36.036,34.57,34.89,34.887,36.46
35.272,36.007,34.573,34.876,34.878,36.423
35.251999999999995,35.982,34.577,34.861,34.869,36.385
35.235,35.961,34.583,34.844,34.859,36.346
35.221,35.943000000000005,34.592,34.827,34.849000000000004,36.305
35.209,35.93,34.605,34.809,34.84,36.263000000000005
35.2,35.919000000000004,34.623000000000005,34.792,34.83,36.219
35.192,35.911,34.647,34.777,34.821,36.174
35.186,35.905,34.679,34.763000000000005,34.814,36.126999999999995
35.18,35.9,34.718,34.753,34.806999999999995,36.079
35.175,35.895,34.764,34.745,34.801,36.029
35.17,35.891,34.816,34.74,34.796,35.979
35.164,35.885,34.876,34.736999999999995,34.792,35.928000000000004
35.157,35.878,34.941,34.736,34.789,35.879
35.148,35.869,35.012,34.736,34.786,35.830999999999996
35.135999999999996,35.857,35.088,34.736999999999995,34.784,35.787
35.123000000000005,35.843,35.168,34.736999999999995,34.78,35.745
35.108000000000004,35.826,35.254,34.736999999999995,34.775,35.707
35.092,35.806999999999995,35.344,34.735,34.769,35.672
35.076,35.787,35.437,34.732,34.760999999999996,35.641999999999996
35.059,35.765,35.53,34.726,34.751,35.616
35.041,35.742,35.622,34.719,34.74,35.594
35.021,35.718,35.71,34.709,34.727,35.577
35.001999999999995,35.691,35.793,34.698,34.714,35.564
34.983000000000004,35.664,35.868,34.686,34.7,35.554
34.967,35.637,35.935,34.675,34.685,35.547
34.952,35.609,35.992,34.663000000000004,34.67,35.543
34.942,35.580999999999996,36.039,34.652,34.655,35.541
34.935,35.555,36.076,34.641,34.64,35.542
34.931,35.53,36.104,34.63,34.624,35.546
34.928000000000004,35.507,36.123000000000005,34.62,34.607,35.553000000000004
34.926,35.486999999999995,36.133,34.61,34.588,35.562
34.923,35.469,36.134,34.602,34.57,35.573
34.92,35.454,36.126,34.596,34.551,35.586
34.916,35.443000000000005,36.11,34.591,34.534,35.6
34.912,35.433,36.086999999999996,34.588,34.519,35.615
34.909,35.425,36.059,34.586,34.506,35.63
34.906,35.419000000000004,36.027,34.586,34.496,35.644
34.903,35.416,35.992,34.586999999999996,34.49,35.658
34.900999999999996,35.415,35.957,34.588,34.486999999999995,35.67
34.897,35.418,35.922,34.59,34.486,35.68
34.893,35.424,35.887,34.592,34.486999999999995,35.688
34.887,35.433,35.852,34.594,34.492,35.694
34.88,35.445,35.819,34.594,34.501,35.698
34.872,35.459,35.786,34.594,34.516,35.7
34.861999999999995,35.473,35.755,34.593,34.536,35.699
34.851,35.488,35.724000000000004,34.592,34.565,35.696
34.84,35.5,35.695,34.59,34.603,35.691
34.829,35.51,35.666,34.586999999999996,34.652,35.684
34.819,35.516999999999996,35.637,34.583,34.713,35.675
34.809,35.519,35.609,34.579,34.786,35.665
34.801,35.516999999999996,35.582,34.574,34.874,35.653
34.795,35.512,35.556,34.568000000000005,34.976,35.639
34.791,35.503,35.531,34.562,35.092,35.622
34.788000000000004,35.492,35.508,34.556,35.223,35.604
34.786,35.48,35.486,34.55,35.367,35.584
34.784,35.466,35.465,34.545,35.524,35.564
34.782,35.452,35.444,34.539,35.69,35.544000000000004
34.78,35.439,35.423,34.533,35.863,35.523
34.777,35.425,35.402,34.525999999999996,36.04,35.501999999999995
34.774,35.411,35.38,34.52,36.217,35.48
34.77,35.397,35.358000000000004,34.513000000000005,36.39,35.459
34.763000000000005,35.383,35.336999999999996,34.507,36.558,35.437
34.753,35.369,35.316,34.501999999999995,36.715,35.416
34.741,35.355,35.295,34.498000000000005,36.859,35.395
34.725,35.341,35.277,34.495,36.989000000000004,35.376
34.707,35.329,35.26,34.492,37.102,35.357
34.688,35.317,35.246,34.49,37.196,35.339
34.667,35.305,35.234,34.488,37.273,35.321
34.646,35.294000000000004,35.226,34.486999999999995,37.332,35.303000000000004
34.624,35.282,35.221,34.486,37.373000000000005,35.284
34.603,35.269,35.22,34.484,37.399,35.264
34.582,35.255,35.223,34.48,37.411,35.243
34.561,35.239000000000004,35.231,34.475,37.411,35.222
34.541,35.221,35.241,34.467,37.400999999999996,35.199
34.522,35.202,35.253,34.458,37.382,35.175
34.504,35.181,35.266,34.446999999999996,37.355,35.152
34.488,35.158,35.28,34.434,37.321999999999996,35.13
34.474000000000004,35.135999999999996,35.294000000000004,34.421,37.284,35.108000000000004
34.461999999999996,35.115,35.306999999999995,34.407,37.242,35.086999999999996
34.45,35.095,35.318000000000005,34.393,37.196999999999996,35.066
34.44,35.079,35.329,34.38,37.150999999999996,35.047
34.429,35.065,35.336999999999996,34.368,37.104,35.028
34.418,35.055,35.344,34.358000000000004,37.056,35.01
34.407,35.047,35.35,34.35,37.009,34.995
34.396,35.042,35.354,34.345,36.963,34.982
34.385,35.04,35.357,34.346,36.918,34.97
34.373000000000005,35.039,35.36,34.353,36.875,34.96
34.361999999999995,35.04,35.364000000000004,34.368,36.835,34.95
34.351,35.041,35.37,34.391,36.797,34.941
34.342,35.042,35.376,34.424,36.762,34.934
34.335,35.041,35.383,34.468,36.731,34.928000000000004
34.33,35.039,35.391,34.522,36.702,34.925
34.329,35.034,35.4,34.586999999999996,36.676,34.922
34.333,35.027,35.408,34.662,36.652,34.919000000000004
34.34,35.016999999999996,35.416,34.746,36.631,34.915
34.353,35.006,35.423,34.839,36.611,34.91
34.373000000000005,34.994,35.429,34.94,36.592,34.903
34.398,34.983000000000004,35.431999999999995,35.049,36.574,34.896
34.433,34.973,35.433,35.163000000000004,36.556,34.887
34.477,34.965,35.431999999999995,35.281,36.538000000000004,34.876999999999995
34.533,34.961,35.428000000000004,35.403,36.519,34.866
34.603,34.961,35.421,35.525999999999996,36.5,34.852
34.687,34.964,35.412,35.648,36.479,34.838
34.786,34.973,35.400999999999996,35.766,36.457,34.824
34.900999999999996,34.986,35.388000000000005,35.88,36.434,34.811
35.03,35.003,35.375,35.986,36.41,34.798
35.174,35.025,35.363,36.084,36.384,34.785
35.328,35.051,35.35,36.171,36.356,34.773
35.491,35.082,35.338,36.247,36.328,34.76
35.659,35.117,35.327,36.312,36.298,34.748000000000005
35.828,35.154,35.315,36.364000000000004,36.266,34.735
35.995,35.193000000000005,35.302,36.403,36.234,34.722
36.156,35.233000000000004,35.289,36.431,36.202,34.709
36.309,35.274,35.274,36.446,36.17,34.696999999999996
36.451,35.315,35.257,36.449,36.139,34.684
36.579,35.356,35.239000000000004,36.441,36.109,34.671
36.693000000000005,35.397,35.221,36.424,36.082,34.659
36.791,35.438,35.203,36.399,36.056999999999995,34.648
36.872,35.478,35.185,36.365,36.032,34.64
36.937,35.516999999999996,35.168,36.324,36.009,34.634
36.985,35.556,35.150999999999996,36.278,35.986999999999995,34.63
37.016999999999996,35.592,35.135,36.229,35.968,34.626999999999995
37.035,35.626999999999995,35.119,36.179,35.952,34.624
37.039,35.658,35.103,36.128,35.941,34.621
37.032,35.687,35.086,36.078,35.934,34.619
37.015,35.713,35.069,36.029,35.931,34.617
36.989000000000004,35.734,35.052,35.984,35.933,34.617
36.957,35.751999999999995,35.035,35.941,35.938,34.616
36.92,35.765,35.019,35.903,35.946999999999996,34.614000000000004
36.878,35.775,35.003,35.868,35.959,34.61
36.834,35.781,34.99,35.836999999999996,35.974000000000004,34.604
36.789,35.784,34.979,35.809,35.992,34.596
36.745,35.783,34.971,35.785,36.010999999999996,34.586999999999996
36.703,35.779,34.965,35.763000000000005,36.03,34.577
36.663000000000004,35.772,34.961,35.744,36.049,34.566
36.626,35.760999999999996,34.958,35.727,36.067,34.555
36.592,35.747,34.955999999999996,35.711999999999996,36.083,34.543
36.562,35.731,34.955,35.698,36.096,34.53
36.535,35.711999999999996,34.954,35.685,36.106,34.515
36.510999999999996,35.69,34.955,35.672,36.111999999999995,34.499
36.491,35.666,34.957,35.659,36.113,34.482
36.474000000000004,35.639,34.96,35.645,36.11,34.466
36.46,35.609,34.965,35.631,36.102,34.446
36.45,35.577,34.972,35.615,36.09,34.42
36.442,35.542,34.98,35.598,36.073,34.389
36.436,35.506,34.989000000000004,35.578,36.053000000000004,34.356
36.431999999999995,35.467,34.997,35.556,36.03,34.323
36.428000000000004,35.427,35.004,35.533,36.003,34.292
36.424,35.385999999999996,35.008,35.508,35.974000000000004,34.265
36.421,35.345,35.009,35.482,35.942,34.244
36.418,35.304,35.007,35.455999999999996,35.906,34.229
36.415,35.263000000000005,35.004,35.43,35.869,34.221
36.411,35.223,35.0,35.404,35.830999999999996,34.219
36.407,35.183,34.995,35.38,35.795,34.223
36.402,35.143,34.99,35.357,35.76,34.231
36.394,35.104,34.985,35.336,35.727,34.242
36.382,35.064,34.98,35.317,35.698,34.255
36.368,35.025999999999996,34.974000000000004,35.301,35.673,34.269
36.35,34.991,34.969,35.287,35.650999999999996,34.282
36.328,34.957,34.963,35.275,35.631,34.295
36.303000000000004,34.927,34.958,35.266,35.614000000000004,34.306999999999995
36.274,34.900999999999996,34.952,35.26,35.599000000000004,34.318000000000005
36.241,34.878,34.948,35.256,35.583,34.329
36.205999999999996,34.86,34.945,35.255,35.566,34.341
36.168,34.847,34.943000000000005,35.255,35.549,34.355
36.128,34.839,34.942,35.258,35.53,34.374
36.089,34.835,34.943000000000005,35.260999999999996,35.509,34.398
36.051,34.835,34.944,35.266,35.488,34.43
36.016,34.84,34.945,35.27,35.465,34.472
35.984,34.85,34.946,35.274,35.441,34.525
35.955999999999996,34.863,34.946,35.278,35.416,34.59
35.931999999999995,34.88,34.945,35.282,35.391,34.669000000000004
35.911,34.9,34.942,35.285,35.366,34.762
35.895,34.922,34.939,35.288000000000004,35.344,34.87
35.882,34.946,34.936,35.292,35.323,34.992
35.874,34.971,34.933,35.295,35.304,35.128
35.869,34.998000000000005,34.929,35.298,35.288000000000004,35.275999999999996
35.867,35.025999999999996,34.926,35.3,35.274,35.434
35.867,35.055,34.922,35.302,35.262,35.6
35.868,35.083,34.918,35.303000000000004,35.251,35.77
35.87,35.11,34.913000000000004,35.304,35.24,35.942
35.872,35.135,34.907,35.304,35.229,36.113
35.872,35.158,34.9,35.304,35.218,36.28
35.872,35.178000000000004,34.891,35.303000000000004,35.207,36.441
35.872,35.194,34.882,35.302,35.194,36.594
35.872,35.205999999999996,34.873000000000005,35.3,35.181,36.736
35.874,35.213,34.864000000000004,35.296,35.167,36.866
35.876,35.215,34.856,35.29,35.153,36.982
35.879,35.211999999999996,34.848,35.282,35.139,37.084
35.882,35.205,34.841,35.271,35.125,37.171
35.885,35.195,34.836999999999996,35.258,35.111999999999995,37.243
35.885999999999996,35.184,34.835,35.242,35.1,37.299
35.887,35.171,34.836,35.222,35.09,37.34
35.885,35.157,34.841,35.2,35.08,37.366
35.881,35.144,34.85,35.176,35.071999999999996,37.38
35.876,35.132,34.864000000000004,35.150999999999996,35.064,37.383
35.868,35.122,34.884,35.126,35.056999999999995,37.376
35.857,35.114000000000004,34.91,35.101,35.051,37.361999999999995
35.845,35.107,34.942,35.076,35.046,37.341
35.830999999999996,35.101,34.982,35.053000000000004,35.041,37.314
35.814,35.096,35.029,35.032,35.036,37.281
35.795,35.092,35.085,35.012,35.031,37.245
35.774,35.086999999999996,35.150999999999996,34.995,35.027,37.205
35.751999999999995,35.082,35.225,34.979,35.023,37.164
35.728,35.076,35.309,34.966,35.019,37.121
35.702,35.068000000000005,35.402,34.953,35.015,37.078
35.676,35.059,35.501999999999995,34.942,35.012,37.035
35.65,35.047,35.61,34.931,35.007,36.993
35.624,35.034,35.722,34.921,35.001,36.952
35.6,35.019,35.836999999999996,34.91,34.993,36.913000000000004
35.577,35.001,35.953,34.898,34.984,36.875
35.556,34.981,36.068000000000005,34.885999999999996,34.975,36.84
35.538000000000004,34.96,36.179,34.872,34.966,36.805
35.522,34.938,36.285,34.857,34.958,36.772
35.509,34.915,36.384,34.841,34.952,36.74
35.498000000000005,34.893,36.474000000000004,34.824,34.949,36.709
35.488,34.871,36.554,34.808,34.95,36.679
35.477,34.851,36.625,34.792,34.954,36.650999999999996
35.465,34.834,36.684,34.778,34.961999999999996,36.623000000000005
35.452,34.818000000000005,36.731,34.766,34.974000000000004,36.597
35.436,34.806999999999995,36.766999999999996,34.756,34.988,36.571
35.418,34.798,36.791,34.748000000000005,35.004,36.546
35.4,34.794000000000004,36.804,34.743,35.021,36.52
35.38,34.793,36.809,34.74,35.039,36.494
35.361,34.794000000000004,36.805,34.739000000000004,35.056,36.466
35.342,34.798,36.794000000000004,34.739000000000004,35.073,36.437
35.325,34.804,36.775999999999996,34.74,35.089,36.405
35.31,34.81,36.753,34.741,35.103,36.372
35.298,34.817,36.726,34.74,35.116,36.336
35.288000000000004,34.823,36.695,34.738,35.126999999999995,36.3
35.28,34.828,36.661,34.734,35.135,36.263000000000005
35.275,34.829,36.626,34.728,35.139,36.224000000000004
35.27,34.827,36.591,34.72,35.14,36.185
35.266,34.821999999999996,36.556,34.71,35.137,36.145
35.263000000000005,34.814,36.522,34.698,35.13,36.107
35.258,34.804,36.489000000000004,34.686,35.118,36.071
35.251,34.792,36.457,34.672,35.102,36.038000000000004
35.243,34.78,36.427,34.659,35.082,36.008
35.232,34.769,36.399,34.647,35.064,35.981
35.22,34.758,36.374,34.635999999999996,35.05,35.957
35.207,34.747,36.352,34.624,35.042,35.937
35.195,34.738,36.333,34.611999999999995,35.038000000000004,35.921
35.183,34.731,36.317,34.6,35.037,35.909
35.172,34.726,36.304,34.59,35.036,35.900999999999996
35.161,34.724000000000004,36.292,34.580999999999996,35.034,35.897
35.15,34.723,36.281,34.574,35.03,35.897
35.141,34.725,36.269,34.569,35.022,35.899
35.131,34.727,36.257,34.567,35.010999999999996,35.903
35.122,34.731,36.243,34.567,34.997,35.909
35.114000000000004,34.735,36.228,34.57,34.98,35.916
35.105,34.74,36.211,34.576,34.96,35.924
35.096,34.745,36.193000000000005,34.585,34.938,35.931999999999995
35.086,34.75,36.175,34.596,34.913000000000004,35.941
35.075,34.753,36.157,34.608000000000004,34.887,35.95
35.063,34.756,36.14,34.619,34.859,35.959
35.051,34.757,36.123000000000005,34.63,34.83,35.966
35.039,34.755,36.106,34.64,34.801,35.972
35.028,34.751999999999995,36.089,34.648,34.773,35.977
35.018,34.746,36.071,34.654,34.745,35.979
35.009,34.738,36.052,34.658,34.72,35.981
35.001,34.728,36.032,34.659,34.695,35.982
34.994,34.717,36.012,34.658,34.673,35.982
34.986999999999995,34.705,35.991,34.654,34.650999999999996,35.98
34.981,34.693000000000005,35.971,34.649,34.63,35.978
34.974000000000004,34.683,35.953,34.643,34.609,35.973
34.968,34.676,35.936,34.635,34.59,35.967
34.96,34.671,35.92,34.626999999999995,34.571,35.959
34.948,34.67,35.906,34.619,34.554,35.949
34.931,34.671,35.893,34.61,34.539,35.937
34.91,34.674,35.882,34.602,34.525,35.924
34.887,34.674,35.871,34.593,34.512,35.909
34.863,34.665,35.861,34.583,34.501,35.895
34.84,34.649,35.852,34.573,34.492,35.88
34.819,34.626,35.845,34.561,34.484,35.866
34.802,34.599000000000004,35.84,34.55,34.48,35.852
34.79,34.569,35.838,34.538000000000004,34.479,35.836999999999996
34.783,34.539,35.836999999999996,34.527,34.483000000000004,35.821
34.78,34.512,35.838,34.518,34.493,35.802
34.781,34.486999999999995,35.839,34.51,34.510999999999996,35.781
34.785,34.468,35.84,34.505,34.537,35.757
34.79,34.455,35.841,34.501,34.573,35.73
34.796,34.448,35.841,34.497,34.621,35.701
34.801,34.448,35.841,34.495,34.68,35.668
34.804,34.453,35.84,34.494,34.751,35.634
34.803000000000004,34.463,35.839,34.492,34.835,35.599000000000004
34.798,34.477,35.836999999999996,34.492,34.931,35.563
34.79,34.494,35.836999999999996,34.49,35.04,35.525999999999996
34.779,34.514,35.836999999999996,34.488,35.16,35.488
34.766,34.533,35.838,34.484,35.292,35.449
34.751999999999995,34.552,35.839,34.479,35.433,35.409
34.739000000000004,34.568000000000005,35.841,34.471,35.582,35.369
34.727,34.582,35.842,34.461999999999996,35.736,35.33
34.715,34.591,35.844,34.45,35.893,35.293
34.705,34.597,35.845,34.437,36.049,35.257
34.696,34.598,35.846,34.425,36.204,35.224000000000004
34.686,34.596,35.846,34.413000000000004,36.353,35.193000000000005
34.675,34.59,35.845,34.403,36.495,35.164
34.664,34.582,35.844,34.397,36.626999999999995,35.139
34.653,34.571,35.842,34.395,36.748000000000005,35.116
34.643,34.559,35.838,34.4,36.856,35.098
34.634,34.546,35.832,34.412,36.95,35.082
34.626999999999995,34.533,35.823,34.431,37.03,35.069
34.621,34.519,35.812,34.46,37.096,35.056
34.615,34.507,35.799,34.498000000000005,37.148,35.044000000000004
34.61,34.495,35.784,34.547,37.185,35.032
34.604,34.484,35.768,34.606,37.209,35.02
34.599000000000004,34.474000000000004,35.751,34.675,37.22,35.007
34.594,34.464,35.734,34.754,37.219,34.993
34.588,34.454,35.719,34.84,37.207,34.978
34.582,34.445,35.705,34.934,37.186,34.963
34.575,34.436,35.691,35.035,37.157,34.946
34.565,34.428000000000004,35.679,35.141,37.123000000000005,34.926
34.554,34.422,35.666,35.25,37.084,34.905
34.541,34.418,35.654,35.356,37.043,34.882
34.528,34.415,35.641,35.455,37.001999999999995,34.858000000000004
34.515,34.415,35.626999999999995,35.546,36.961,34.836
34.504,34.416,35.613,35.63,36.921,34.815
34.495,34.419000000000004,35.597,35.707,36.884,34.795
34.486999999999995,34.423,35.578,35.78,36.848,34.775999999999996
34.482,34.428000000000004,35.559,35.85,36.815,34.758
34.478,34.431,35.538000000000004,35.919000000000004,36.784,34.742
34.477,34.434,35.516999999999996,35.986,36.755,34.725
34.476,34.434,35.496,36.051,36.727,34.709
34.475,34.433,35.476,36.114000000000004,36.7,34.693000000000005
34.474000000000004,34.431,35.457,36.173,36.674,34.677
34.471,34.428000000000004,35.439,36.226,36.647,34.662
34.467,34.424,35.424,36.272,36.621,34.647
34.461,34.419000000000004,35.41,36.308,36.594,34.634
34.454,34.414,35.399,36.335,36.568000000000005,34.622
34.446,34.409,35.39,36.351,36.541,34.611999999999995
34.438,34.405,35.383,36.356,36.514,34.602
34.428000000000004,34.4,35.378,36.351,36.488,34.591
34.418,34.395,35.375,36.336,36.463,34.580999999999996
34.408,34.388000000000005,35.373000000000005,36.311,36.44,34.571
34.398,34.38,35.372,36.279,36.418,34.561
34.388000000000005,34.369,35.371,36.24,36.397,34.553000000000004
34.38,34.357,35.372,36.198,36.376999999999995,34.545
34.374,34.342,35.373000000000005,36.153,36.358000000000004,34.537
34.369,34.326,35.375,36.107,36.339,34.528
34.368,34.309,35.376999999999995,36.061,36.32,34.52
34.369,34.293,35.378,36.015,36.3,34.513000000000005
34.376,34.277,35.379,35.972,36.279,34.506
34.387,34.265,35.381,35.931,36.255,34.499
34.404,34.255,35.382,35.893,36.23,34.494
34.427,34.251,35.383,35.859,36.203,34.489000000000004
34.457,34.254,35.384,35.828,36.175,34.484
34.494,34.264,35.384,35.803000000000004,36.146,34.479
34.54,34.285,35.384,35.789,36.116,34.476
34.595,34.317,35.383,35.783,36.086,34.473
34.66,34.363,35.382,35.786,36.056999999999995,34.471
34.736,34.424,35.379,35.793,36.028,34.47
34.823,34.499,35.376,35.803000000000004,36.001999999999995,34.469
34.921,34.589,35.373000000000005,35.812,35.979,34.467
35.029,34.693000000000005,35.37,35.818000000000005,35.959,34.465
35.148,34.809,35.368,35.818000000000005,35.943000000000005,34.463
35.275999999999996,34.936,35.366,35.811,35.931,34.461
35.41,35.071999999999996,35.364000000000004,35.796,35.923,34.458
35.548,35.214,35.363,35.773,35.914,34.454
35.686,35.361999999999995,35.361999999999995,35.743,35.903,34.446999999999996
35.821,35.512,35.36,35.705999999999996,35.891999999999996,34.439
35.951,35.662,35.358000000000004,35.664,35.88,34.429
36.073,35.81,35.354,35.618,35.87,34.418
36.184,35.954,35.348,35.569,35.861999999999995,34.407
36.284,36.092,35.341,35.518,35.858000000000004,34.395
36.37,36.223,35.333,35.468,35.859,34.383
36.442,36.343,35.325,35.42,35.864000000000004,34.37
36.501,36.453,35.317,35.374,35.874,34.356
36.546,36.552,35.309,35.333,35.888000000000005,34.342
36.579,36.639,35.302,35.297,35.907,34.327
36.601,36.711999999999996,35.295,35.266,35.928000000000004,34.312
36.611999999999995,36.772,35.289,35.241,35.951,34.297
36.615,36.819,35.283,35.221,35.975,34.283
36.61,36.853,35.275999999999996,35.207,35.997,34.268
36.597,36.874,35.268,35.199,36.016999999999996,34.251999999999995
36.578,36.881,35.259,35.196,36.033,34.236
36.553000000000004,36.876,35.249,35.196999999999996,36.044000000000004,34.218
36.523,36.859,35.239000000000004,35.202,36.051,34.2
36.491,36.830999999999996,35.229,35.21,36.051,34.181999999999995
36.458,36.793,35.218,35.222,36.046,34.165
36.424,36.747,35.207,35.236,36.035,34.147
36.391,36.694,35.196,35.251,36.019,34.129
36.359,36.635999999999996,35.185,35.266,35.998000000000005,34.111
36.328,36.574,35.174,35.281,35.974000000000004,34.093
36.297,36.510999999999996,35.163000000000004,35.293,35.946,34.076
36.268,36.446999999999996,35.152,35.303000000000004,35.918,34.063
36.24,36.385,35.143,35.311,35.888000000000005,34.053000000000004
36.214,36.326,35.135999999999996,35.317,35.859,34.05
36.19,36.271,35.132,35.321999999999996,35.832,34.054
36.169000000000004,36.221,35.13,35.326,35.806,34.069
36.152,36.177,35.131,35.329,35.785,34.094
36.139,36.139,35.133,35.333,35.766,34.132
36.13,36.107,35.135999999999996,35.336,35.75,34.183
36.124,36.08,35.139,35.338,35.736,34.247
36.121,36.056999999999995,35.141999999999996,35.339,35.721,34.325
36.119,36.036,35.143,35.341,35.707,34.415
36.118,36.016999999999996,35.141999999999996,35.342,35.691,34.518
36.118,36.0,35.139,35.343,35.674,34.634
36.117,35.984,35.135999999999996,35.342,35.656,34.760999999999996
36.114000000000004,35.969,35.132,35.341,35.635999999999996,34.9
36.107,35.955,35.129,35.336999999999996,35.614000000000004,35.048
36.096,35.943000000000005,35.129,35.332,35.59,35.205999999999996
36.080999999999996,35.931,35.132,35.323,35.565,35.369
36.062,35.922,35.141,35.312,35.537,35.537
36.04,35.914,35.157,35.298,35.509,35.705
36.016,35.908,35.184,35.282,35.479,35.873000000000005
35.992,35.902,35.22,35.263000000000005,35.448,36.038000000000004
35.968,35.896,35.268,35.241,35.415,36.196999999999996
35.946,35.889,35.327,35.218,35.382,36.347
35.924,35.882,35.397,35.193000000000005,35.349000000000004,36.486999999999995
35.902,35.873000000000005,35.478,35.168,35.316,36.615
35.879,35.863,35.569,35.143,35.284,36.728
35.855,35.851,35.67,35.119,35.253,36.826
35.829,35.836999999999996,35.778,35.097,35.225,36.908
35.802,35.82,35.891999999999996,35.075,35.199,36.975
35.775,35.801,36.01,35.055,35.178000000000004,37.027
35.748000000000005,35.78,36.13,35.036,35.159,37.065
35.721,35.758,36.249,35.016999999999996,35.145,37.089
35.695,35.736999999999995,36.364000000000004,34.998000000000005,35.133,37.1
35.669000000000004,35.716,36.475,34.978,35.126,37.099000000000004
35.645,35.696999999999996,36.579,34.957,35.122,37.086999999999996
35.623000000000005,35.679,36.674,34.935,35.122,37.067
35.604,35.663000000000004,36.760999999999996,34.912,35.125,37.039
35.588,35.649,36.836999999999996,34.888000000000005,35.13,37.005
35.575,35.635,36.900999999999996,34.865,35.135999999999996,36.966
35.566,35.624,36.954,34.842,35.143,36.923
35.56,35.613,36.993,34.82,35.150999999999996,36.876999999999995
35.559,35.603,37.02,34.799,35.159,36.829
35.561,35.594,37.036,34.78,35.165,36.78
35.565,35.584,37.04,34.764,35.17,36.73
35.573,35.574,37.035,34.751,35.174,36.681
35.582,35.564,37.021,34.743,35.175,36.633
35.594,35.555,37.001999999999995,34.738,35.175,36.586
35.606,35.545,36.977,34.738,35.174,36.54
35.618,35.535,36.948,34.741,35.17,36.495
35.629,35.524,36.918,34.747,35.166,36.452
35.638000000000005,35.514,36.885,34.755,35.16,36.409
35.644,35.504,36.85,34.762,35.153,36.369
35.646,35.496,36.815,34.769,35.146,36.329
35.644,35.489000000000004,36.779,34.775,35.139,36.29
35.639,35.484,36.743,34.779,35.133,36.251
35.63,35.479,36.707,34.781,35.126999999999995,36.211999999999996
35.62,35.475,36.673,34.78,35.121,36.173
35.608000000000004,35.472,36.641,34.778,35.116,36.135
35.595,35.469,36.613,34.773,35.111,36.099000000000004
35.582,35.466,36.588,34.766999999999996,35.107,36.063
35.569,35.464,36.569,34.76,35.103,36.029
35.556,35.461,36.553000000000004,34.751999999999995,35.099000000000004,35.997
35.545,35.46,36.54,34.743,35.094,35.967
35.533,35.459,36.529,34.736,35.088,35.94
35.521,35.458,36.519,34.73,35.079,35.917
35.509,35.458,36.509,34.725,35.068000000000005,35.897
35.496,35.457,36.498000000000005,34.722,35.054,35.881
35.483000000000004,35.455,36.486,34.718,35.036,35.868
35.469,35.454,36.471,34.714,35.016,35.858000000000004
35.454,35.451,36.454,34.707,34.993,35.851
35.438,35.446999999999996,36.434,34.699,34.968,35.846
35.421,35.441,36.413000000000004,34.69,34.941,35.843
35.404,35.433,36.39,34.68,34.913000000000004,35.842
35.385999999999996,35.422,36.365,34.67,34.885,35.843
35.366,35.408,36.339,34.661,34.857,35.845
35.346,35.391999999999996,36.312,34.654,34.83,35.848
35.325,35.375,36.282,34.648,34.804,35.851
35.304,35.356,36.251,34.643,34.779,35.855
35.283,35.338,36.218,34.639,34.757,35.858000000000004
35.264,35.319,36.184,34.637,34.735,35.86
35.246,35.301,36.149,34.635,34.716,35.861
35.231,35.285,36.113,34.634,34.698,35.86
35.217,35.27,36.078,34.633,34.683,35.859
35.205,35.258,36.043,34.632,34.67,35.856
35.195,35.249,36.009,34.631,34.659,35.852
35.186,35.244,35.977,34.63,34.649,35.847
35.177,35.241,35.946,34.629,34.64,35.844
35.166,35.239000000000004,35.915,34.626999999999995,34.632,35.841
35.154,35.239000000000004,35.885999999999996,34.625,34.625,35.842
35.14,35.238,35.858000000000004,34.623000000000005,34.62,35.844
35.123000000000005,35.236,35.830999999999996,34.621,34.617,35.847
35.106,35.232,35.805,34.619,34.614000000000004,35.852
35.091,35.226,35.779,34.617,34.614000000000004,35.858000000000004
35.077,35.217,35.755,34.615,34.615,35.866
35.065,35.204,35.732,34.611999999999995,34.618,35.874
35.056,35.188,35.711,34.611,34.624,35.884
35.049,35.171,35.692,34.609,34.632,35.895
35.042,35.152,35.675,34.607,34.641999999999996,35.904
35.035,35.132,35.661,34.606,34.650999999999996,35.912
35.028,35.111999999999995,35.65,34.605,34.66,35.918
35.02,35.094,35.643,34.604,34.668,35.922
35.01,35.079,35.638000000000005,34.602,34.676,35.922
34.998000000000005,35.066,35.637,34.599000000000004,34.681999999999995,35.919000000000004
34.984,35.055,35.638000000000005,34.594,34.686,35.912
34.968,35.046,35.641,34.588,34.69,35.900999999999996
34.95,35.039,35.646,34.58,34.691,35.885999999999996
34.931,35.034,35.652,34.571,34.692,35.866
34.912,35.031,35.657,34.56,34.691,35.844
34.893,35.029,35.663000000000004,34.547,34.69,35.818000000000005
34.876,35.028,35.668,34.534,34.687,35.789
34.86,35.027,35.673,34.521,34.684,35.756
34.848,35.028,35.678000000000004,34.507,34.681,35.72
34.836999999999996,35.03,35.684,34.495,34.678000000000004,35.679
34.828,35.032,35.69,34.482,34.674,35.637
34.821999999999996,35.036,35.696999999999996,34.469,34.671,35.593
34.818000000000005,35.04,35.704,34.455,34.667,35.55
34.817,35.045,35.71,34.442,34.662,35.506
34.817,35.048,35.716,34.428000000000004,34.655,35.463
34.82,35.051,35.719,34.416,34.647,35.419000000000004
34.823,35.051,35.721,34.405,34.637,35.375
34.826,35.05,35.719,34.397,34.626,35.330999999999996
34.828,35.047,35.715,34.391999999999996,34.613,35.289
34.828,35.041,35.708,34.391999999999996,34.599000000000004,35.246
34.827,35.033,35.698,34.397,34.584,35.205
34.821,35.023,35.686,34.408,34.568000000000005,35.164
34.813,35.012,35.671,34.426,34.552,35.123000000000005
34.803000000000004,35.001,35.653,34.453,34.534,35.082
34.791,34.992,35.632,34.488,34.516999999999996,35.041
34.777,34.983000000000004,35.608000000000004,34.533,34.499,35.001
34.763000000000005,34.977,35.583,34.586999999999996,34.481,34.961
34.749,34.971,35.555,34.650999999999996,34.464,34.92
34.734,34.967,35.525999999999996,34.723,34.448,34.88
34.72,34.963,35.498000000000005,34.803000000000004,34.433,34.84
34.707,34.959,35.472,34.891,34.42,34.799
34.696999999999996,34.955999999999996,35.449,34.985,34.408,34.759
34.69,34.951,35.428000000000004,35.084,34.399,34.719
34.684,34.946,35.411,35.189,34.391999999999996,34.678000000000004
34.68,34.938,35.395,35.297,34.387,34.635999999999996
34.675,34.929,35.382,35.409,34.382,34.594
34.669000000000004,34.919000000000004,35.37,35.522,34.38,34.552
34.662,34.908,35.359,35.635999999999996,34.379,34.51
34.653,34.896,35.346,35.749,34.379,34.469
34.643,34.883,35.332,35.86,34.379,34.429
34.632,34.871,35.318000000000005,35.966,34.38,34.391999999999996
34.621,34.86,35.302,36.067,34.381,34.356
34.61,34.85,35.287,36.158,34.381,34.321999999999996
34.6,34.841,35.273,36.239000000000004,34.38,34.29
34.592,34.834,35.259,36.308,34.378,34.26
34.584,34.829,35.247,36.361999999999995,34.374,34.232
34.579,34.826,35.236999999999995,36.403,34.369,34.205999999999996
34.575,34.823,35.228,36.429,34.363,34.183
34.571,34.821999999999996,35.221,36.441,34.355,34.163000000000004
34.569,34.82,35.214,36.44,34.346,34.144
34.566,34.818000000000005,35.207,36.427,34.336,34.126999999999995
34.561,34.816,35.2,36.402,34.326,34.11
34.555,34.812,35.192,36.368,34.315,34.094
34.548,34.808,35.181999999999995,36.327,34.305,34.078
34.538000000000004,34.803000000000004,35.172,36.28,34.294000000000004,34.063
34.528,34.799,35.161,36.229,34.284,34.049
34.516999999999996,34.794000000000004,35.149,36.176,34.275,34.035
34.508,34.79,35.135,36.123000000000005,34.266,34.022
34.499,34.786,35.12,36.071,34.258,34.01
34.49,34.783,35.103,36.021,34.25,33.998000000000005
34.483000000000004,34.78,35.084,35.974000000000004,34.243,33.988
34.475,34.775999999999996,35.064,35.931,34.236999999999995,33.979
34.469,34.772,35.045,35.891,34.232,33.971
34.463,34.766999999999996,35.025999999999996,35.856,34.227,33.963
34.457,34.759,35.008,35.824,34.223,33.955999999999996
34.451,34.749,34.992,35.796,34.22,33.95
34.443000000000005,34.736999999999995,34.977,35.771,34.217,33.944
34.435,34.724000000000004,34.961999999999996,35.749,34.215,33.939
34.427,34.71,34.949,35.728,34.213,33.934
34.42,34.696,34.938,35.709,34.211999999999996,33.929
34.415,34.683,34.928000000000004,35.691,34.211,33.924
34.411,34.671,34.918,35.673,34.211,33.92
34.408,34.66,34.91,35.655,34.21,33.917
34.407,34.650999999999996,34.900999999999996,35.637,34.209,33.914
34.406,34.643,34.891999999999996,35.62,34.207,33.911
34.405,34.635,34.883,35.603,34.205,33.909
34.403,34.628,34.875,35.585,34.202,33.908
34.399,34.62,34.867,35.567,34.198,33.906
34.394,34.61,34.861,35.549,34.192,33.904
34.385999999999996,34.599000000000004,34.856,35.53,34.185,33.902
34.376999999999995,34.586999999999996,34.853,35.51,34.178000000000004,33.9
34.367,34.573,34.852,35.489000000000004,34.17,33.898
34.355,34.559,34.852,35.468,34.164,33.896
34.343,34.544000000000004,34.853,35.446,34.159,33.893
34.33,34.53,34.855,35.424,34.155,33.89
34.317,34.516999999999996,34.857,35.400999999999996,34.152,33.885
34.305,34.506,34.859,35.378,34.15,33.88
34.293,34.497,34.86,35.355,34.149,33.872
34.281,34.492,34.86,35.332,34.15,33.863
34.269,34.492,34.859,35.309,34.15,33.851
34.256,34.497,34.859,35.288000000000004,34.150999999999996,33.838
34.242,34.509,34.86,35.269,34.152,33.823
34.227,34.528,34.861,35.251999999999995,34.153,33.808
34.213,34.554,34.861,35.238,34.153,33.793
34.2,34.588,34.861,35.227,34.153,33.778
34.188,34.63,34.86,35.219,34.152,33.763000000000005
34.177,34.68,34.859,35.213,34.150999999999996,33.749
34.168,34.74,34.856,35.211,34.149,33.735
34.161,34.808,34.852,35.211,34.147,33.721
34.156,34.885,34.847,35.215,34.144,33.709
34.152,34.97,34.84,35.222,34.14,33.696999999999996
34.149,35.063,34.830999999999996,35.232,34.134,33.685
34.146,35.164,34.82,35.242,34.126999999999995,33.671
34.141999999999996,35.272,34.808,35.253,34.119,33.657
34.138000000000005,35.385999999999996,34.795,35.262,34.11,33.641999999999996
34.134,35.501999999999995,34.782,35.269,34.099000000000004,33.625
34.13,35.62,34.768,35.274,34.088,33.609
34.129,35.736,34.754,35.278,34.077,33.593
34.131,35.85,34.742,35.28,34.067,33.577
34.139,35.957,34.73,35.281,34.058,33.562
34.155,36.056999999999995,34.719,35.281,34.052,33.549
34.18,36.149,34.708,35.282,34.048,33.537
34.216,36.231,34.698,35.282,34.048,33.527
34.263000000000005,36.302,34.689,35.284,34.051,33.522
34.321999999999996,36.364000000000004,34.68,35.286,34.056999999999995,33.522
34.393,36.414,34.671,35.289,34.066,33.527
34.473,36.454,34.664,35.293,34.076,33.54
34.563,36.483000000000004,34.657,35.296,34.086999999999996,33.56
34.661,36.501999999999995,34.650999999999996,35.299,34.098,33.591
34.766,36.51,34.645,35.3,34.108000000000004,33.631
34.874,36.508,34.641,35.298,34.117,33.685
34.985,36.497,34.637,35.294000000000004,34.125,33.751
35.095,36.478,34.635999999999996,35.286,34.13,33.830999999999996
35.204,36.451,34.639,35.275,34.133,33.924
35.309,36.42,34.647,35.26,34.134,34.03
35.41,36.383,34.659,35.243,34.133,34.148
35.506,36.344,34.677,35.223,34.128,34.275999999999996
35.597,36.302,34.701,35.201,34.12,34.409
35.68,36.259,34.734,35.178000000000004,34.11,34.543
35.756,36.217,34.777,35.154,34.098,34.678000000000004
35.824,36.176,34.83,35.131,34.085,34.815
35.883,36.138000000000005,34.893,35.108000000000004,34.071,34.952
35.934,36.103,34.967,35.086999999999996,34.058,35.09
35.976,36.071999999999996,35.051,35.067,34.046,35.228
36.009,36.046,35.146,35.05,34.036,35.366
36.033,36.023,35.251999999999995,35.035,34.029,35.501999999999995
36.048,36.004,35.367,35.02,34.025,35.635999999999996
36.053000000000004,35.988,35.491,35.006,34.023,35.766
36.05,35.974000000000004,35.621,34.992,34.025,35.889
36.039,35.961999999999996,35.753,34.978,34.028,36.005
36.02,35.952,35.885999999999996,34.963,34.034,36.11
35.997,35.944,36.015,34.948,34.041,36.204
35.97,35.937,36.138000000000005,34.931,34.049,36.284
35.942,35.931,36.253,34.915,34.058,36.351
35.913000000000004,35.924,36.355,34.898,34.067,36.402
35.885,35.918,36.445,34.881,34.076,36.438
35.858000000000004,35.909,36.521,34.866,34.082,36.46
35.832,35.899,36.582,34.851,34.086999999999996,36.468
35.806999999999995,35.887,36.63,34.84,34.089,36.465
35.784,35.872,36.664,34.83,34.09,36.45
35.764,35.856,36.686,34.823,34.088,36.427
35.745,35.838,36.696999999999996,34.818000000000005,34.085,36.395
35.729,35.818000000000005,36.698,34.814,34.079,36.355
35.714,35.797,36.688,34.813,34.071999999999996,36.311
35.702,35.774,36.67,34.812,34.064,36.262
35.691,35.751,36.645,34.811,34.055,36.211
35.681,35.727,36.614000000000004,34.811,34.046,36.159
35.672,35.704,36.579,34.81,34.037,36.109
35.662,35.68,36.542,34.809,34.029,36.06
35.653,35.657,36.505,34.806999999999995,34.021,36.013000000000005
35.641999999999996,35.633,36.469,34.804,34.014,35.969
35.632,35.61,36.435,34.8,34.007,35.929
35.62,35.588,36.404,34.794000000000004,34.001,35.891
35.607,35.567,36.374,34.788000000000004,33.995,35.856
35.592,35.546,36.346,34.781,33.989000000000004,35.823
35.575,35.528,36.32,34.774,33.983000000000004,35.79
35.559,35.510999999999996,36.295,34.766,33.979,35.758
35.542,35.495,36.272,34.759,33.976,35.726
35.528,35.482,36.25,34.753,33.975,35.693000000000005
35.515,35.471,36.231,34.747,33.978,35.659
35.503,35.461999999999996,36.215,34.742,33.986999999999995,35.621
35.491,35.455,36.2,34.738,34.003,35.58
35.478,35.45,36.188,34.735,34.029,35.535
35.465,35.446999999999996,36.177,34.732,34.069,35.488
35.45,35.445,36.167,34.73,34.124,35.438
35.433,35.444,36.157,34.73,34.196,35.385999999999996
35.415,35.444,36.146,34.73,34.288000000000004,35.335
35.396,35.444,36.134,34.73,34.399,35.283
35.375,35.445,36.121,34.731,34.529,35.232
35.354,35.446,36.108000000000004,34.73,34.679,35.183
35.330999999999996,35.448,36.096,34.728,34.847,35.135
35.308,35.449,36.084,34.724000000000004,35.031,35.09
35.285,35.451,36.073,34.719,35.23,35.049
35.263000000000005,35.451,36.061,34.711999999999996,35.442,35.01
35.244,35.449,36.049,34.705,35.663000000000004,34.975
35.228,35.444,36.036,34.698,35.89,34.944
35.216,35.437,36.02,34.689,36.122,34.918
35.209,35.429,36.0,34.68,36.353,34.896
35.204,35.42,35.977,34.67,36.580999999999996,34.878
35.201,35.411,35.95,34.66,36.802,34.865
35.201,35.402,35.919000000000004,34.65,37.013000000000005,34.856
35.202,35.391999999999996,35.885,34.641,37.209,34.851
35.205,35.384,35.85,34.633,37.388000000000005,34.851
35.21,35.375,35.813,34.626999999999995,37.548,34.853
35.217,35.367,35.778,34.622,37.687,34.858000000000004
35.225,35.358000000000004,35.744,34.619,37.802,34.866
35.235,35.35,35.711,34.618,37.894,34.876
35.246,35.341,35.681999999999995,34.618,37.961999999999996,34.889
35.257,35.333,35.655,34.619,38.007,34.904
35.268,35.326,35.632,34.621,38.03,34.922
35.279,35.321,35.611999999999995,34.624,38.032,34.943000000000005
35.287,35.316,35.596,34.626999999999995,38.016999999999996,34.966
35.294000000000004,35.312,35.584,34.63,37.986,34.991
35.298,35.309,35.576,34.632,37.943000000000005,35.016
35.299,35.306,35.571,34.635,37.891999999999996,35.043
35.298,35.303000000000004,35.569,34.635999999999996,37.835,35.07
35.295,35.299,35.568000000000005,34.637,37.775,35.097
35.29,35.294000000000004,35.569,34.637,37.714,35.124
35.282,35.288000000000004,35.571999999999996,34.637,37.655,35.15
35.273,35.279,35.576,34.635,37.598,35.174
35.263000000000005,35.269,35.580999999999996,34.633,37.543,35.198
35.251,35.258,35.588,34.63,37.49,35.219
35.239000000000004,35.245,35.596,34.626999999999995,37.439,35.238
35.225,35.231,35.604,34.622,37.389,35.255
35.21,35.217,35.611999999999995,34.615,37.341,35.268
35.195,35.202,35.619,34.607,37.294000000000004,35.279
35.178000000000004,35.186,35.625,34.597,37.247,35.287
35.16,35.169000000000004,35.629,34.586999999999996,37.201,35.292
35.143,35.150999999999996,35.63,34.575,37.157,35.294000000000004
35.126999999999995,35.132,35.628,34.563,37.114000000000004,35.292
35.111,35.113,35.623000000000005,34.549,37.073,35.288000000000004
35.096,35.093,35.615,34.534,37.034,35.28
35.082,35.073,35.606,34.519,36.998000000000005,35.269
35.07,35.055,35.597,34.501999999999995,36.964,35.257
35.058,35.038000000000004,35.586999999999996,34.485,36.933,35.242
35.047,35.023,35.576,34.468,36.905,35.226
35.035,35.012,35.566,34.45,36.879,35.21
35.024,35.004,35.555,34.434,36.855,35.192
35.013000000000005,34.999,35.545,34.42,36.833,35.173
35.001,34.998000000000005,35.534,34.41,36.813,35.154
34.989000000000004,35.0,35.523,34.405,36.794000000000004,35.133
34.976,35.005,35.512,34.403,36.775999999999996,35.111999999999995
34.958,35.010999999999996,35.5,34.407,36.758,35.091
34.936,35.018,35.488,34.417,36.74,35.07
34.91,35.025,35.475,34.434,36.722,35.047
34.882,35.034,35.461,34.457,36.703,35.023
34.853,35.041,35.448,34.486,36.683,34.998000000000005
34.826,35.049,35.434,34.523,36.663000000000004,34.972
34.803000000000004,35.055,35.419000000000004,34.567,36.641999999999996,34.945
34.786,35.061,35.403,34.619,36.62,34.919000000000004
34.774,35.066,35.385999999999996,34.678000000000004,36.597,34.893
34.766999999999996,35.07,35.367,34.744,36.571999999999996,34.868
34.765,35.076,35.348,34.819,36.547,34.842
34.766999999999996,35.083,35.327,34.900999999999996,36.521,34.817
34.772,35.092,35.306,34.991,36.495,34.792
34.779,35.105,35.284,35.089,36.468,34.769
34.786,35.122,35.262,35.194,36.442,34.747
34.793,35.143,35.24,35.304,36.417,34.727
34.8,35.17,35.218,35.418,36.394,34.708
34.805,35.2,35.196,35.534,36.373000000000005,34.691
34.809,35.234,35.174,35.650999999999996,36.354,34.675
34.812,35.271,35.152,35.765,36.339,34.66
34.812,35.308,35.132,35.875,36.328,34.646
34.81,35.343,35.111999999999995,35.979,36.32,34.632
34.806999999999995,35.376,35.092,36.076,36.315,34.619
34.803000000000004,35.408,35.073,36.165,36.313,34.606
34.798,35.437,35.055,36.243,36.314,34.593
34.792,35.463,35.04,36.31,36.318000000000005,34.579
34.784,35.486,35.025999999999996,36.361999999999995,36.324,34.563
34.774,35.505,35.014,36.400999999999996,36.330999999999996,34.546
34.763000000000005,35.522,35.003,36.425,36.339,34.528
34.75,35.536,34.994,36.435,36.347,34.51
34.736999999999995,35.548,34.985,36.431999999999995,36.354,34.492
34.723,35.556,34.974000000000004,36.419000000000004,36.359,34.474000000000004
34.71,35.562,34.963,36.396,36.361999999999995,34.457
34.699,35.565,34.949,36.367,36.363,34.441
34.69,35.565,34.934,36.333,36.363,34.427
34.681,35.562,34.917,36.295,36.36,34.414
34.674,35.556,34.899,36.256,36.357,34.403
34.669000000000004,35.547,34.88,36.216,36.352,34.394
34.665,35.533,34.861999999999995,36.177,36.346,34.387
34.664,35.516,34.847,36.139,36.336999999999996,34.382
34.663000000000004,35.494,34.834,36.104,36.326,34.378
34.664,35.469,34.826,36.071,36.312,34.376
34.665,35.441,34.821,36.041,36.295,34.374
34.665,35.409,34.82,36.014,36.275,34.374
34.665,35.373000000000005,34.821,35.989000000000004,36.251,34.373000000000005
34.664,35.335,34.823,35.965,36.226,34.372
34.662,35.295,34.827,35.942,36.198,34.371
34.659,35.254,34.83,35.919000000000004,36.169000000000004,34.369
34.657,35.21,34.832,35.896,36.139,34.366
34.656,35.166,34.834,35.873000000000005,36.108000000000004,34.361
34.655,35.122,34.834,35.851,36.079,34.355
34.655,35.079,34.833,35.829,36.051,34.348
34.655,35.037,34.832,35.808,36.024,34.34
34.654,34.996,34.83,35.786,35.999,34.332
34.652,34.957,34.828,35.765,35.975,34.323
34.649,34.921,34.825,35.744,35.952,34.315
34.645,34.887,34.821999999999996,35.723,35.93,34.306
34.639,34.857,34.817,35.7,35.909,34.298
34.632,34.83,34.812,35.677,35.889,34.29
34.623000000000005,34.806,34.806999999999995,35.652,35.869,34.281
34.611,34.786,34.802,35.626999999999995,35.849000000000004,34.273
34.597,34.771,34.798,35.601,35.829,34.264
34.582,34.76,34.793,35.574,35.808,34.257
34.566,34.754,34.791,35.547,35.788000000000004,34.249
34.553000000000004,34.753,34.79,35.521,35.766999999999996,34.242
34.542,34.754,34.79,35.496,35.745,34.236
34.534,34.759,34.791,35.472,35.723,34.229
34.53,34.768,34.796,35.449,35.7,34.221
34.528,34.779,34.806,35.428000000000004,35.676,34.213
34.529,34.793,34.821,35.408,35.652,34.205
34.53,34.806999999999995,34.84,35.39,35.628,34.196
34.532,34.821999999999996,34.861999999999995,35.374,35.606,34.185
34.533,34.836999999999996,34.883,35.358000000000004,35.584,34.173
34.532,34.853,34.903,35.345,35.564,34.16
34.531,34.87,34.919000000000004,35.332,35.546,34.147
34.527,34.887,34.93,35.321999999999996,35.529,34.133
34.522,34.905,34.934,35.314,35.514,34.12
34.514,34.925,34.931999999999995,35.306999999999995,35.501,34.107
34.504,34.945,34.922,35.302,35.488,34.093
34.491,34.966,34.906,35.298,35.478,34.080999999999996
34.476,34.986999999999995,34.883,35.296,35.468,34.069
34.461999999999996,35.008,34.855,35.297,35.459,34.058
34.448,35.028,34.825,35.3,35.449,34.049
34.436,35.046,34.793,35.305,35.439,34.042
34.426,35.063,34.760999999999996,35.313,35.429,34.038000000000004
34.417,35.076,34.732,35.323,35.417,34.039
34.411,35.086999999999996,34.705,35.335,35.405,34.044000000000004
34.405,35.094,34.683,35.348,35.391,34.056
34.400999999999996,35.099000000000004,34.665,35.361999999999995,35.375,34.075
34.399,35.1,34.652,35.376,35.357,34.103
34.398,35.098,34.641999999999996,35.39,35.338,34.141
34.398,35.093,34.634,35.403,35.318000000000005,34.191
34.398,35.085,34.626999999999995,35.416,35.296,34.253
34.397,35.075,34.621,35.426,35.275,34.326
34.397,35.064,34.613,35.434,35.254,34.411
34.396,35.05,34.605,35.441,35.233000000000004,34.506
34.394,35.034,34.595,35.445,35.214,34.611999999999995
34.391,35.016999999999996,34.585,35.446999999999996,35.196,34.727
34.387,35.0,34.574,35.445,35.18,34.849000000000004
34.381,34.982,34.562,35.441,35.166,34.979
34.373000000000005,34.965,34.551,35.434,35.153,35.113
34.363,34.95,34.54,35.423,35.141999999999996,35.251
34.351,34.936,34.53,35.411,35.133,35.391
34.338,34.925,34.521,35.396,35.124,35.53
34.324,34.916,34.512,35.378,35.117,35.666
34.309,34.91,34.504,35.358000000000004,35.111,35.797
34.293,34.905,34.498000000000005,35.336999999999996,35.106,35.922
34.277,34.902,34.493,35.315,35.101,36.038000000000004
34.262,34.9,34.49,35.294000000000004,35.096,36.143
34.249,34.897,34.489000000000004,35.272,35.091,36.236
34.238,34.894,34.49,35.251,35.086,36.314
34.228,34.889,34.495,35.231,35.080999999999996,36.376999999999995
34.22,34.881,34.503,35.211999999999996,35.075,36.425
34.214,34.872,34.516999999999996,35.195,35.069,36.458
34.21,34.86,34.536,35.178000000000004,35.062,36.48
34.205999999999996,34.846,34.563,35.163000000000004,35.056,36.49
34.202,34.83,34.597,35.149,35.049,36.491
34.199,34.814,34.638000000000005,35.135,35.041,36.484
34.195,34.797,34.689,35.122,35.033,36.469
34.191,34.78,34.749,35.108000000000004,35.025,36.449
34.186,34.764,34.818000000000005,35.092,35.016,36.425
34.181,34.75,34.897,35.076,35.006,36.398
34.176,34.736999999999995,34.985,35.06,34.995,36.369
34.172,34.726,35.082,35.041,34.983000000000004,36.339
34.168,34.718,35.187,35.022,34.963,36.308
34.167,34.71,35.299,35.003,34.937,36.275999999999996
34.169000000000004,34.704,35.417,34.983000000000004,34.904,36.243
34.174,34.698,35.538000000000004,34.965,34.868,36.208
34.185,34.693000000000005,35.662,34.946999999999996,34.83,36.173
34.204,34.689,35.786,34.929,34.795,36.138000000000005
34.23,34.684,35.907,34.913000000000004,34.763000000000005,36.102
34.266999999999996,34.681,36.025,34.898,34.739000000000004,36.066
34.314,34.678000000000004,36.137,34.885999999999996,34.721,36.03
34.373000000000005,34.677,36.24,34.875,34.711999999999996,35.992
34.445,34.676,36.332,34.867,34.709,35.953
34.528,34.676,36.411,34.86,34.711999999999996,35.911
34.621,34.677,36.478,34.856,34.72,35.868
34.723,34.679,36.53,34.852,34.732,35.823
34.830999999999996,34.681,36.568000000000005,34.85,34.745,35.775999999999996
34.942,34.681999999999995,36.592,34.848,34.76,35.727
35.056,34.681999999999995,36.601,34.844,34.774,35.676
35.17,34.681,36.598,34.84,34.787,35.624
35.283,34.679,36.583,34.835,34.798,35.57
35.393,34.675,36.559,34.829,34.808,35.515
35.498000000000005,34.669000000000004,36.528,34.823,34.815,35.46
35.597,34.661,36.491,34.817,34.82,35.405
35.687,34.650999999999996,36.45,34.81,34.823,35.35
35.768,34.638000000000005,36.406,34.804,34.824,35.294000000000004
35.838,34.624,36.361,34.798,34.825,35.24
35.897,34.61,36.315,34.792,34.825,35.189
35.945,34.595,36.27,34.788000000000004,34.825,35.14
35.981,34.580999999999996,36.226,34.785,34.824,35.095
36.007,34.57,36.185,34.783,34.823,35.052
36.023,34.56,36.146,34.782,34.82,35.012
36.029,34.553000000000004,36.11,34.783,34.816,34.974000000000004
36.027,34.549,36.078,34.783,34.811,34.938
36.016999999999996,34.548,36.049,34.784,34.804,34.905
36.001,34.548,36.024,34.785,34.794000000000004,34.876999999999995
35.979,34.549,36.004,34.785,34.78,34.853
35.953,34.552,35.986999999999995,34.784,34.762,34.834
35.924,34.556,35.973,34.782,34.74,34.82
35.893,34.559,35.961999999999996,34.78,34.715,34.812
35.859,34.563,35.953,34.778,34.688,34.808
35.825,34.567,35.946,34.775,34.66,34.811
35.791,34.571999999999996,35.941,34.773,34.632,34.818000000000005
35.758,34.576,35.936,34.771,34.605,34.830999999999996
35.728,34.580999999999996,35.931999999999995,34.769,34.579,34.848
35.702,34.586999999999996,35.929,34.768,34.555,34.868
35.679,34.594,35.924,34.766999999999996,34.534,34.89
35.66,34.6,35.917,34.768,34.514,34.914
35.644,34.606,35.905,34.77,34.497,34.939
35.631,34.61,35.89,34.772,34.483000000000004,34.964
35.62,34.613,35.869,34.775,34.471,34.989000000000004
35.611,34.614000000000004,35.844,34.778,34.463,35.013000000000005
35.602,34.613,35.815,34.779,34.459,35.037
35.595,34.61,35.784,34.78,34.458,35.058
35.588,34.605,35.751,34.78,34.461,35.078
35.583,34.598,35.719,34.78,34.467,35.096
35.579,34.59,35.688,34.78,34.477,35.111
35.576,34.580999999999996,35.658,34.778,34.491,35.124
35.573,34.571999999999996,35.63,34.775,34.51,35.134
35.569,34.563,35.602,34.771,34.534,35.141
35.564,34.555,35.576,34.766999999999996,34.565,35.146
35.556999999999995,34.549,35.551,34.760999999999996,34.604,35.149
35.549,34.543,35.527,34.754,34.652,35.15
35.539,34.539,35.504,34.746,34.711,35.15
35.525999999999996,34.536,35.484,34.738,34.783,35.148
35.51,34.533,35.467,34.729,34.869,35.146
35.492,34.531,35.454,34.72,34.97,35.141
35.472,34.529,35.445,34.71,35.086,35.134
35.45,34.528,35.44,34.7,35.218,35.125
35.428000000000004,34.527,35.439,34.691,35.364000000000004,35.113
35.405,34.527,35.44,34.681,35.523,35.099000000000004
35.382,34.525999999999996,35.443000000000005,34.673,35.692,35.083
35.36,34.525999999999996,35.448,34.664,35.868,35.065
35.339,34.527,35.453,34.655,36.049,35.044000000000004
35.319,34.53,35.458,34.645,36.231,35.021
35.299,34.533,35.464,34.635,36.41,34.994
35.28,34.537,35.471,34.625,36.583,34.964
35.262,34.542,35.478,34.616,36.748000000000005,34.931999999999995
35.245,34.544000000000004,35.485,34.606,36.900999999999996,34.899
35.23,34.546,35.493,34.596,37.041,34.867
35.218,34.545,35.5,34.586,37.166,34.835
35.208,34.542,35.505,34.577,37.274,34.804
35.2,34.538000000000004,35.508,34.568000000000005,37.365,34.773
35.195,34.531,35.508,34.56,37.438,34.743
35.192,34.524,35.505,34.552,37.495,34.711999999999996
35.192,34.515,35.501,34.545,37.535,34.683
35.194,34.506,35.495,34.54,37.559,34.654
35.198,34.496,35.488,34.536,37.569,34.626
35.203,34.486999999999995,35.481,34.533,37.565,34.599000000000004
35.21,34.478,35.475,34.533,37.551,34.573
35.219,34.47,35.468,34.535,37.527,34.548
35.229,34.463,35.461999999999996,34.539,37.495,34.524
35.24,34.455999999999996,35.454,34.545,37.457,34.501
35.251,34.45,35.445,34.552,37.415,34.48
35.263000000000005,34.444,35.434,34.562,37.369,34.46
35.274,34.44,35.421,34.573,37.321999999999996,34.441
35.285,34.435,35.405,34.586999999999996,37.274,34.424
35.294000000000004,34.43,35.387,34.604,37.227,34.408
35.302,34.423,35.367,34.625,37.181,34.394
35.308,34.416,35.346,34.650999999999996,37.135,34.38
35.312,34.408,35.324,34.684,37.09,34.367
35.313,34.4,35.303000000000004,34.724000000000004,37.045,34.355
35.312,34.393,35.282,34.773,37.001,34.342
35.308,34.387,35.262,34.830999999999996,36.957,34.329
35.302,34.382,35.244,34.898,36.913000000000004,34.317
35.294000000000004,34.378,35.227,34.976,36.871,34.306
35.284,34.374,35.211,35.063,36.829,34.295
35.274,34.371,35.196,35.16,36.79,34.285
35.260999999999996,34.366,35.181999999999995,35.266,36.751999999999995,34.275
35.248000000000005,34.359,35.168,35.38,36.718,34.265
35.234,34.351,35.154,35.498000000000005,36.686,34.254
35.22,34.342,35.141999999999996,35.621,36.659,34.242
35.207,34.334,35.13,35.745,36.634,34.229
35.194,34.328,35.119,35.869,36.613,34.215
35.181999999999995,34.321999999999996,35.108000000000004,35.991,36.594,34.199
35.171,34.318000000000005,35.098,36.108000000000004,36.577,34.184
35.161,34.316,35.086999999999996,36.217,36.562,34.167
35.150999999999996,34.314,35.076,36.316,36.546,34.15
35.141999999999996,34.312,35.064,36.402,36.53,34.132
35.132,34.309,35.052,36.473,36.510999999999996,34.114000000000004
35.121,34.304,35.039,36.529,36.49,34.096
35.108000000000004,34.299,35.024,36.568000000000005,36.466,34.078
35.093,34.294000000000004,35.008,36.593,36.437,34.061
35.076,34.289,34.991,36.603,36.405,34.044000000000004
35.059,34.286,34.972,36.6,36.369,34.029
35.04,34.288000000000004,34.953,36.588,36.330999999999996,34.014
35.022,34.296,34.934,36.568000000000005,36.291,34.0
35.004,34.314,34.916,36.543,36.251,33.986999999999995
34.988,34.342,34.900999999999996,36.513000000000005,36.213,33.974000000000004
34.973,34.382,34.888000000000005,36.48,36.179,33.961999999999996
34.959,34.436,34.876999999999995,36.444,36.148,33.952
34.946,34.501999999999995,34.868,36.406,36.123000000000005,33.944
34.934,34.582,34.86,36.367,36.102,33.939
34.922,34.675,34.853,36.327,36.086999999999996,33.936
34.911,34.779,34.846,36.287,36.077,33.936
34.9,34.896,34.839,36.246,36.07,33.938
34.889,35.024,34.832,36.205999999999996,36.067,33.942
34.879,35.162,34.826,36.167,36.067,33.946999999999996
34.869,35.308,34.82,36.13,36.069,33.953
34.859,35.461,34.814,36.094,36.073,33.959
34.851,35.618,34.808,36.061,36.079,33.964
34.843,35.775999999999996,34.803000000000004,36.031,36.085,33.967
34.834,35.934,34.798,36.001999999999995,36.092,33.969
34.826,36.089,34.794000000000004,35.977,36.099000000000004,33.971
34.816,36.24,34.79,35.952,36.106,33.971
34.804,36.383,34.788000000000004,35.929,36.113,33.97
34.792,36.516999999999996,34.787,35.908,36.12,33.967
34.778,36.64,34.785,35.887,36.126999999999995,33.961999999999996
34.764,36.749,34.784,35.867,36.133,33.954
34.751,36.844,34.782,35.846,36.14,33.944
34.74,36.923,34.781,35.826,36.148,33.933
34.732,36.986,34.779,35.805,36.155,33.921
34.727,37.032,34.777,35.783,36.161,33.909
34.725,37.062,34.775,35.762,36.168,33.895
34.725,37.078,34.773,35.74,36.174,33.881
34.728,37.080999999999996,34.77,35.719,36.18,33.865
34.732,37.071999999999996,34.766999999999996,35.696999999999996,36.183,33.847
34.736999999999995,37.053000000000004,34.764,35.675,36.185,33.829
34.743,37.025999999999996,34.76,35.653,36.184,33.811
34.75,36.991,34.756,35.632,36.181,33.795
34.759,36.95,34.751999999999995,35.611,36.174,33.779
34.769,36.904,34.747,35.59,36.166,33.764
34.778,36.854,34.742,35.569,36.156,33.75
34.788000000000004,36.8,34.735,35.549,36.144,33.736
34.798,36.744,34.728,35.529,36.13,33.722
34.81,36.687,34.72,35.509,36.115,33.709
34.824,36.629,34.711,35.491,36.098,33.696
34.842,36.57,34.703,35.474000000000004,36.078,33.685
34.864000000000004,36.512,34.694,35.459,36.056,33.675
34.89,36.454,34.686,35.446,36.031,33.667
34.922,36.399,34.68,35.435,36.003,33.662
34.958,36.347,34.675,35.425,35.972,33.662
34.998000000000005,36.298,34.672,35.419000000000004,35.94,33.668
35.041,36.254,34.671,35.414,35.906,33.681999999999995
35.086,36.216,34.67,35.413000000000004,35.871,33.705999999999996
35.132,36.183,34.67,35.414,35.836,33.741
35.178000000000004,36.156,34.669000000000004,35.419000000000004,35.802,33.787
35.223,36.135999999999996,34.667,35.426,35.769,33.845
35.268,36.122,34.663000000000004,35.436,35.736999999999995,33.915
35.31,36.114000000000004,34.658,35.448,35.705999999999996,33.997
35.351,36.11,34.650999999999996,35.461999999999996,35.676,34.091
35.389,36.11,34.643,35.476,35.647,34.199
35.424,36.111999999999995,34.635,35.491,35.618,34.318000000000005
35.455999999999996,36.114000000000004,34.626999999999995,35.507,35.59,34.448
35.486999999999995,36.116,34.62,35.521,35.563,34.589
35.516,36.116,34.614000000000004,35.535,35.537,34.739000000000004
35.543,36.114000000000004,34.61,35.546,35.512,34.895
35.566,36.108000000000004,34.607,35.555,35.488,35.055
35.586,36.101,34.603,35.563,35.466,35.217
35.6,36.09,34.599000000000004,35.567,35.445,35.376
35.609,36.076,34.594,35.568000000000005,35.425,35.532
35.613,36.06,34.586999999999996,35.567,35.407,35.681
35.611,36.041,34.58,35.563,35.39,35.821999999999996
35.606,36.021,34.573,35.556,35.375,35.953
35.596,36.0,34.567,35.547,35.361999999999995,36.071
35.583,35.976,34.563,35.537,35.349000000000004,36.177
35.567,35.951,34.56,35.525,35.338,36.268
35.549,35.924,34.56,35.512,35.328,36.345
35.529,35.895,34.561,35.499,35.319,36.408
35.508,35.866,34.564,35.485,35.31,36.455999999999996
35.486999999999995,35.836,34.566,35.471,35.301,36.491
35.466,35.806999999999995,34.567,35.457,35.292,36.514
35.446,35.781,34.566,35.443000000000005,35.282,36.524
35.426,35.758,34.563,35.429,35.271,36.525
35.407,35.74,34.555,35.414,35.259,36.518
35.387,35.727,34.543,35.399,35.246,36.503
35.366,35.719,34.527,35.382,35.231,36.482
35.344,35.717,34.51,35.364000000000004,35.214,36.458
35.32,35.721,34.491,35.343,35.196,36.43
35.295,35.73,34.472,35.319,35.178000000000004,36.400999999999996
35.268,35.743,34.454,35.294000000000004,35.158,36.372
35.239000000000004,35.757,34.437,35.265,35.14,36.341
35.209,35.771,34.421,35.235,35.122,36.311
35.178000000000004,35.784,34.407,35.203,35.106,36.28
35.145,35.795,34.394,35.17,35.092,36.248000000000005
35.111,35.803000000000004,34.384,35.138000000000005,35.08,36.216
35.076,35.806999999999995,34.378,35.108000000000004,35.069,36.183
35.04,35.808,34.376,35.08,35.06,36.149
35.004,35.805,34.38,35.055,35.052,36.115
34.968,35.798,34.391999999999996,35.034,35.046,36.079
34.934,35.789,34.411,35.016,35.041,36.044000000000004
34.903,35.777,34.44,35.001999999999995,35.036,36.007
34.875,35.762,34.478,34.989000000000004,35.031,35.97
34.853,35.747,34.524,34.979,35.025999999999996,35.931999999999995
34.835,35.732,34.579,34.972,35.02,35.894
34.823,35.718,34.641999999999996,34.965,35.013000000000005,35.854
34.815,35.705999999999996,34.714,34.96,35.005,35.813
34.811,35.696,34.795,34.955,34.994,35.773
34.811,35.688,34.884,34.95,34.982,35.732
34.815,35.678000000000004,34.981,34.944,34.969,35.691
34.821,35.664,35.086999999999996,34.938,34.955,35.65
34.829,35.645,35.199,34.931,34.94,35.61
34.838,35.621,35.318000000000005,34.923,34.925,35.57
34.849000000000004,35.595,35.441,34.916,34.91,35.53
34.861999999999995,35.568000000000005,35.568000000000005,34.908,34.896,35.489000000000004
34.876999999999995,35.542,35.695,34.902,34.882,35.449
34.894,35.519,35.82,34.897,34.87,35.409
34.913000000000004,35.5,35.941,34.893,34.86,35.37
34.934,35.483000000000004,36.056,34.891,34.852,35.332
34.957,35.471,36.163000000000004,34.891,34.846,35.294000000000004
34.981,35.461,36.259,34.891999999999996,34.843,35.257
35.005,35.454,36.344,34.895,34.84,35.221
35.028,35.449,36.416,34.898,34.839,35.185
35.05,35.445,36.474000000000004,34.900999999999996,34.838,35.152
35.069,35.441,36.519,34.904,34.836999999999996,35.121
35.085,35.437,36.55,34.906,34.836,35.093
35.097,35.431999999999995,36.567,34.907,34.835,35.068000000000005
35.106,35.427,36.571,34.906,34.832,35.045
35.11,35.42,36.565,34.905,34.829,35.025
35.109,35.413000000000004,36.55,34.902,34.825,35.008
35.105,35.405,36.527,34.899,34.819,34.994
35.097,35.396,36.499,34.894,34.813,34.981
35.086,35.385999999999996,36.466,34.888000000000005,34.806,34.971
35.073,35.376999999999995,36.431,34.883,34.798,34.964
35.061,35.369,36.393,34.876999999999995,34.789,34.959
35.049,35.361,36.354,34.872,34.78,34.959
35.038000000000004,35.354,36.316,34.866,34.77,34.961
35.028,35.348,36.277,34.861,34.76,34.967
35.018,35.342,36.239000000000004,34.857,34.749,34.976
35.008,35.336999999999996,36.202,34.853,34.736999999999995,34.986
34.998000000000005,35.333,36.166,34.849000000000004,34.725,34.997
34.986999999999995,35.329,36.131,34.846,34.713,35.008
34.976,35.325,36.098,34.843,34.702,35.019
34.963,35.323,36.067,34.84,34.691,35.03
34.949,35.32,36.037,34.838,34.681,35.04
34.934,35.317,36.007,34.836,34.673,35.051
34.919000000000004,35.313,35.979,34.835,34.666,35.061
34.904,35.308,35.952,34.834,34.66,35.069
34.888000000000005,35.301,35.927,34.832,34.656,35.077
34.872,35.291,35.903,34.830999999999996,34.653,35.084
34.856,35.275,35.881,34.829,34.650999999999996,35.09
34.839,35.254,35.86,34.826,34.649,35.095
34.824,35.229,35.84,34.821,34.647,35.099000000000004
34.81,35.201,35.82,34.816,34.645,35.101
34.798,35.171,35.8,34.809,34.643,35.103
34.786,35.144,35.779,34.801,34.64,35.102
34.775999999999996,35.119,35.759,34.793,34.638000000000005,35.099000000000004
34.768,35.098,35.738,34.783,34.634,35.094
34.763000000000005,35.083,35.718,34.774,34.63,35.086
34.762,35.073,35.699,34.765,34.625,35.075
34.766,35.069,35.679,34.756,34.618,35.062
34.773,35.069,35.66,34.748000000000005,34.61,35.046
34.784,35.071999999999996,35.641,34.74,34.6,35.029
34.795,35.078,35.622,34.733000000000004,34.59,35.01
34.805,35.086,35.602,34.726,34.578,34.99
34.813,35.094,35.582,34.72,34.564,34.971
34.818000000000005,35.101,35.561,34.713,34.55,34.954
34.818000000000005,35.107,35.54,34.705999999999996,34.536,34.939
34.813,35.111,35.518,34.699,34.521,34.927
34.803000000000004,35.114000000000004,35.496,34.692,34.507,34.917
34.789,35.116,35.475,34.685,34.493,34.907
34.771,35.117,35.454,34.677,34.48,34.898
34.749,35.118,35.436,34.669000000000004,34.469,34.887
34.724000000000004,35.119,35.419000000000004,34.661,34.461,34.872
34.696999999999996,35.12,35.404,34.652,34.454,34.854
34.669000000000004,35.121,35.391999999999996,34.644,34.449,34.830999999999996
34.643,35.122,35.381,34.637,34.446,34.804
34.618,35.123000000000005,35.374,34.631,34.446,34.773
34.597,35.123000000000005,35.371,34.625,34.448,34.739000000000004
34.58,35.123000000000005,35.37,34.62,34.455,34.703
34.565,35.122,35.374,34.617,34.466,34.665
34.554,35.12,35.38,34.614000000000004,34.483000000000004,34.626
34.546,35.117,35.39,34.611,34.507,34.585
34.542,35.114000000000004,35.400999999999996,34.61,34.538000000000004,34.545
34.542,35.109,35.412,34.608000000000004,34.578,34.504
34.545,35.102,35.423,34.606,34.628,34.465
34.551,35.094,35.434,34.603,34.688,34.428000000000004
34.558,35.085,35.444,34.599000000000004,34.76,34.391999999999996
34.564,35.076,35.452,34.596,34.843,34.359
34.568000000000005,35.066,35.459,34.592,34.938,34.326
34.571,35.058,35.463,34.589,35.045,34.294000000000004
34.571,35.051,35.465,34.586,35.165,34.264
34.569,35.044000000000004,35.466,34.584,35.298,34.233000000000004
34.565,35.038000000000004,35.465,34.584,35.442,34.203
34.561,35.031,35.461,34.586,35.596,34.174
34.556,35.025,35.455999999999996,34.593,35.758,34.145
34.551,35.019,35.449,34.605,35.927,34.116
34.546,35.013000000000005,35.439,34.623000000000005,36.098,34.089
34.542,35.007,35.429,34.648,36.269,34.062
34.538000000000004,35.001,35.418,34.681999999999995,36.436,34.037
34.535,34.996,35.406,34.725,36.598,34.012
34.533,34.991,35.395,34.778,36.751,33.989000000000004
34.532,34.988,35.383,34.84,36.891999999999996,33.968
34.533,34.986,35.371,34.91,37.02,33.946999999999996
34.534,34.986,35.357,34.989000000000004,37.134,33.928000000000004
34.536,34.986,35.342,35.076,37.231,33.911
34.537,34.986,35.325,35.17,37.312,33.896
34.538000000000004,34.986,35.306,35.268,37.376,33.882
34.538000000000004,34.986,35.285,35.371,37.423,33.869
34.537,34.984,35.262,35.476,37.455,33.857
34.535,34.981,35.238,35.583,37.472,33.845
34.532,34.974000000000004,35.214,35.69,37.477,33.832
34.527,34.964,35.19,35.796,37.471,33.819
34.52,34.95,35.166,35.9,37.455,33.806999999999995
34.512,34.933,35.141999999999996,36.001999999999995,37.431,33.794000000000004
34.501999999999995,34.914,35.12,36.1,37.4,33.783
34.491,34.893,35.099000000000004,36.192,37.364000000000004,33.771
34.48,34.872,35.08,36.277,37.324,33.76
34.469,34.852,35.062,36.354,37.282,33.748000000000005
34.458,34.835,35.045,36.422,37.238,33.736999999999995
34.449,34.821,35.029,36.48,37.194,33.726
34.441,34.81,35.014,36.527,37.15,33.718
34.436,34.803000000000004,35.0,36.564,37.107,33.711999999999996
34.434,34.8,34.986,36.589,37.066,33.708
34.433,34.801,34.972,36.602,37.027,33.707
34.435,34.805,34.96,36.605,36.989000000000004,33.709
34.437,34.812,34.949,36.597,36.954,33.713
34.44,34.824,34.939,36.58,36.92,33.721
34.442,34.839,34.931,36.554,36.889,33.73
34.443000000000005,34.859,34.924,36.522,36.859,33.74
34.442,34.884,34.919000000000004,36.484,36.830999999999996,33.751999999999995
34.438,34.914,34.914,36.442,36.806,33.765
34.433,34.952,34.91,36.399,36.781,33.777
34.426,34.998000000000005,34.906,36.354,36.758,33.788000000000004
34.417,35.052,34.904,36.31,36.736,33.798
34.407,35.115,34.903,36.268,36.714,33.806
34.397,35.188,34.900999999999996,36.227,36.692,33.812
34.385999999999996,35.27,34.899,36.187,36.67,33.816
34.374,35.361999999999995,34.897,36.15,36.648,33.819
34.364000000000004,35.461999999999996,34.894,36.116,36.626,33.82
34.354,35.568000000000005,34.891,36.085,36.604,33.819
34.347,35.681,34.885999999999996,36.059,36.580999999999996,33.816
34.341,35.797,34.88,36.037,36.556999999999995,33.812
34.336,35.916,34.873000000000005,36.016999999999996,36.532,33.806
34.335,36.034,34.864000000000004,36.0,36.506,33.798
34.335,36.149,34.856,35.984,36.479,33.789
34.336999999999996,36.258,34.848,35.968,36.452,33.778
34.34,36.361,34.84,35.953,36.425,33.768
34.344,36.454,34.833,35.938,36.397,33.757
34.348,36.538000000000004,34.827,35.922,36.369,33.746
34.352,36.611,34.821,35.904,36.342,33.736
34.355,36.674,34.816,35.885,36.316,33.727
34.356,36.725,34.81,35.864000000000004,36.29,33.719
34.356,36.766,34.803000000000004,35.841,36.266,33.713
34.356,36.796,34.796,35.816,36.242,33.71
34.355,36.816,34.789,35.789,36.222,33.71
34.353,36.825,34.78,35.76,36.205,33.713
34.349000000000004,36.825,34.771,35.731,36.192,33.72
34.345,36.816,34.760999999999996,35.702,36.184,33.732
34.339,36.799,34.751,35.673,36.181999999999995,33.751
34.332,36.775,34.742,35.645,36.183,33.777
34.326,36.744,34.732,35.619,36.189,33.812
34.319,36.708,34.724000000000004,35.595,36.198,33.857
34.311,36.666,34.716,35.571999999999996,36.21,33.911
34.302,36.62,34.71,35.551,36.224000000000004,33.977
34.292,36.571999999999996,34.705,35.532,36.239000000000004,34.053000000000004
34.28,36.521,34.701,35.516,36.255,34.141
34.269,36.471,34.699,35.501,36.271,34.241
34.258,36.423,34.696999999999996,35.488,36.286,34.353
34.248000000000005,36.378,34.696,35.476,36.3,34.475
34.239000000000004,36.336999999999996,34.696,35.466,36.311,34.607
34.232,36.299,34.696,35.458,36.32,34.748000000000005
34.227,36.264,34.696,35.452,36.326,34.896
34.223,36.233000000000004,34.695,35.448,36.329,35.049
34.219,36.205999999999996,34.693000000000005,35.446,36.330999999999996,35.205
34.217,36.183,34.691,35.446999999999996,36.330999999999996,35.363
34.214,36.165,34.688,35.45,36.329,35.519
34.211999999999996,36.150999999999996,34.685,35.454,36.327,35.672
34.21,36.141999999999996,34.681,35.46,36.325,35.819
34.208,36.137,34.677,35.467,36.321,35.957
34.205999999999996,36.135,34.673,35.474000000000004,36.317,36.083
34.205,36.135999999999996,34.669000000000004,35.481,36.311,36.195
34.204,36.138000000000005,34.665,35.488,36.304,36.292
34.204,36.141,34.661,35.494,36.294000000000004,36.375
34.204,36.143,34.658,35.501,36.281,36.443000000000005
34.205,36.144,34.654,35.507,36.266,36.497
34.207,36.141999999999996,34.649,35.513000000000005,36.247,36.538000000000004
34.21,36.138000000000005,34.644,35.519,36.224000000000004,36.567
34.213,36.13,34.639,35.525,36.199,36.583
34.216,36.12,34.632,35.529,36.171,36.588
34.218,36.105,34.625,35.533,36.14,36.584
34.218,36.086999999999996,34.618,35.536,36.107,36.571
34.217,36.066,34.611,35.537,36.074,36.552
34.214,36.04,34.604,35.538000000000004,36.042,36.527
34.21,36.012,34.597,35.536,36.010999999999996,36.498000000000005
34.205,35.981,34.591,35.533,35.982,36.464
34.199,35.949,34.586,35.527,35.955,36.428000000000004
34.192,35.917,34.583,35.519,35.93,36.39
34.186,35.887,34.582,35.508,35.907,36.352
34.181,35.858000000000004,34.583,35.494,35.885,36.314
34.177,35.832,34.585,35.478,35.865,36.275999999999996
34.175,35.809,34.586999999999996,35.459,35.847,36.239000000000004
34.176,35.79,34.589,35.439,35.828,36.201
34.179,35.774,34.589,35.417,35.809,36.164
34.184,35.760999999999996,34.588,35.395,35.79,36.126
34.19,35.75,34.585,35.373000000000005,35.771,36.088
34.196,35.741,34.58,35.352,35.75,36.051
34.2,35.734,34.573,35.332,35.728,36.013000000000005
34.204,35.728,34.565,35.314,35.705,35.976
34.207,35.723,34.555,35.298,35.681,35.938
34.209,35.72,34.545,35.284,35.657,35.9
34.209,35.718,34.536,35.27,35.631,35.861
34.209,35.718,34.525999999999996,35.256,35.607,35.823
34.207,35.719,34.516,35.242,35.583,35.785
34.205,35.721,34.507,35.226,35.561,35.748000000000005
34.204,35.726,34.498000000000005,35.207,35.542,35.711999999999996
34.203,35.731,34.488,35.187,35.525,35.676
34.203,35.739000000000004,34.478,35.164,35.51,35.641
34.204,35.747,34.467,35.141,35.495,35.606
34.204,35.755,34.457,35.117,35.481,35.571
34.203,35.763000000000005,34.448,35.092,35.468,35.536
34.199,35.77,34.441,35.069,35.455,35.5
34.193000000000005,35.775999999999996,34.435,35.047,35.444,35.464
34.184,35.78,34.431,35.029,35.434,35.427
34.172,35.782,34.427,35.013000000000005,35.427,35.389
34.158,35.782,34.426,35.001,35.423,35.351
34.143,35.778,34.426,34.993,35.42,35.312
34.129,35.772,34.429,34.988,35.421,35.275
34.117,35.762,34.435,34.986,35.423,35.238
34.108000000000004,35.749,34.446,34.985,35.429,35.203
34.103,35.733000000000004,34.463,34.986,35.436,35.17
34.104,35.715,34.486999999999995,34.986,35.446999999999996,35.139
34.111,35.696,34.52,34.986999999999995,35.46,35.11
34.128,35.675,34.563,34.986,35.476,35.086
34.154,35.654,34.618,34.984,35.494,35.066
34.192,35.633,34.684,34.981,35.515,35.051
34.242,35.611999999999995,34.760999999999996,34.976,35.538000000000004,35.04
34.306,35.593,34.848,34.969,35.563,35.033
34.385,35.574,34.944,34.961999999999996,35.591,35.028
34.481,35.558,35.046,34.954,35.621,35.025999999999996
34.593,35.544000000000004,35.154,34.946,35.653,35.025999999999996
34.721,35.532,35.266,34.939,35.689,35.029
34.865,35.522,35.381,34.933,35.727,35.033
35.024,35.513000000000005,35.496,34.928000000000004,35.769,35.038000000000004
35.193000000000005,35.506,35.611999999999995,34.924,35.813,35.044000000000004
35.371,35.498000000000005,35.725,34.921,35.86,35.048
35.554,35.491,35.835,34.918,35.91,35.052
35.738,35.484,35.94,34.916,35.96,35.056
35.919000000000004,35.476,36.038000000000004,34.915,36.010999999999996,35.06
36.092,35.466,36.129,34.914,36.063,35.065
36.254,35.455999999999996,36.21,34.914,36.113,35.071
36.402,35.444,36.28,34.915,36.16,35.077
36.534,35.43,36.338,34.917,36.202,35.084
36.649,35.41,36.384,34.919000000000004,36.239000000000004,35.091
36.745,35.383,36.419000000000004,34.922,36.27,35.097
36.823,35.352,36.442,34.924,36.294000000000004,35.102
36.882,35.318000000000005,36.455999999999996,34.927,36.311,35.106
36.922,35.285,36.461,34.929,36.32,35.11
36.946,35.253,36.457,34.931,36.323,35.111999999999995
36.955,35.225,36.446,34.931,36.319,35.115
36.95,35.202,36.428000000000004,34.93,36.31,35.116
36.933,35.184,36.403,34.927,36.295,35.116
36.905,35.172,36.373000000000005,34.923,36.277,35.114000000000004
36.868,35.166,36.338,34.916,36.254,35.111
36.823,35.167,36.299,34.907,36.228,35.107
36.773,35.173,36.257,34.895,36.198,35.102
36.72,35.184,36.213,34.881,36.164,35.095
36.665,35.199,36.169000000000004,34.866,36.126,35.086
36.61,35.216,36.124,34.85,36.085,35.075
36.555,35.234,36.080999999999996,34.834,36.038000000000004,35.061
36.501,35.25,36.04,34.819,35.988,35.046
36.45,35.264,36.001,34.805,35.934,35.028
36.402,35.275,35.964,34.793,35.875,35.01
36.357,35.28,35.93,34.784,35.812,34.99
36.316,35.279,35.898,34.777,35.747,34.97
36.278,35.273,35.869,34.773,35.68,34.949
36.244,35.263000000000005,35.843,34.772,35.611,34.927
36.216,35.25,35.82,34.772,35.543,34.905
36.192,35.235,35.799,34.775,35.476,34.882
36.174,35.22,35.78,34.778,35.412,34.859
36.161,35.204,35.763000000000005,34.781,35.353,34.834
36.154,35.19,35.747,34.785,35.298,34.81
36.150999999999996,35.177,35.732,34.79,35.25,34.785
36.150999999999996,35.167,35.717,34.794000000000004,35.21,34.760999999999996
36.154,35.159,35.701,34.797,35.177,34.738
36.157,35.154,35.685,34.799,35.152,34.714
36.16,35.15,35.669000000000004,34.798,35.134,34.69
36.161,35.149,35.650999999999996,34.795,35.124,34.666
36.16,35.15,35.632,34.79,35.12,34.643
36.157,35.152,35.611,34.784,35.121,34.62
36.152,35.154,35.59,34.775999999999996,35.126999999999995,34.599000000000004
36.144,35.156,35.567,34.768,35.137,34.579
36.133,35.158,35.542,34.759,35.15,34.56
36.12,35.158,35.516,34.75,35.165,34.544000000000004
36.104,35.157,35.489000000000004,34.74,35.181,34.529
36.086,35.152,35.461,34.729,35.198,34.516
36.066,35.144,35.433,34.718,35.214,34.503
36.045,35.133,35.406,34.707,35.23,34.491
36.023,35.12,35.379,34.696,35.247,34.479
36.001999999999995,35.104,35.354,34.685,35.263000000000005,34.468
35.98,35.086999999999996,35.330999999999996,34.674,35.279,34.455999999999996
35.96,35.069,35.312,34.664,35.294000000000004,34.443000000000005
35.941,35.052,35.296,34.655,35.31,34.431999999999995
35.924,35.037,35.284,34.648,35.326,34.42
35.908,35.024,35.275999999999996,34.641999999999996,35.343,34.41
35.893,35.014,35.271,34.637,35.36,34.400999999999996
35.879,35.008,35.27,34.634,35.376,34.391999999999996
35.867,35.006,35.272,34.632,35.391999999999996,34.383
35.855,35.007,35.277,34.63,35.406,34.373000000000005
35.844,35.01,35.284,34.629,35.42,34.363
35.832,35.015,35.294000000000004,34.628,35.433,34.352
35.82,35.021,35.305,34.626999999999995,35.446,34.341
35.806999999999995,35.025999999999996,35.318000000000005,34.624,35.458,34.329
35.793,35.03,35.330999999999996,34.62,35.468,34.318000000000005
35.779,35.032,35.345,34.615,35.477,34.306
35.766,35.033,35.36,34.608000000000004,35.484,34.293
35.754,35.032,35.376,34.6,35.489000000000004,34.28
35.744,35.03,35.391999999999996,34.593,35.491,34.266999999999996
35.734,35.027,35.408,34.588,35.491,34.255
35.725,35.022,35.423,34.584,35.488,34.243
35.717,35.018,35.436,34.583,35.482,34.231
35.711,35.014,35.446999999999996,34.586,35.473,34.221
35.705,35.009,35.455,34.595,35.461,34.211
35.7,35.005,35.46,34.611,35.446,34.202
35.696999999999996,35.0,35.463,34.635,35.429,34.196
35.693000000000005,34.994,35.463,34.667,35.41,34.193000000000005
35.69,34.988,35.46,34.708,35.389,34.192
35.686,34.981,35.454,34.757,35.367,34.192
35.681999999999995,34.973,35.444,34.815,35.343,34.193000000000005
35.678000000000004,34.965,35.431999999999995,34.881,35.318000000000005,34.194
35.674,34.955999999999996,35.416,34.955,35.293,34.194
35.669000000000004,34.948,35.398,35.037,35.266,34.193000000000005
35.664,34.939,35.379,35.126,35.238,34.192
35.66,34.931,35.359,35.221,35.21,34.189
35.656,34.923,35.339,35.323,35.181999999999995,34.183
35.65,34.916,35.319,35.429,35.155,34.176
35.644,34.91,35.3,35.538000000000004,35.129,34.165
35.635999999999996,34.904,35.282,35.649,35.104,34.153
35.626999999999995,34.9,35.263000000000005,35.76,35.080999999999996,34.14
35.617,34.894,35.245,35.871,35.06,34.126
35.606,34.885999999999996,35.226,35.979,35.041,34.111
35.595,34.876999999999995,35.207,36.083,35.023,34.096
35.583,34.866,35.188,36.181,35.007,34.082
35.571,34.854,35.168,36.271,34.991,34.067
35.559,34.841,35.148,36.352,34.976,34.053000000000004
35.546,34.827,35.129,36.423,34.961,34.039
35.533,34.815,35.111,36.482,34.946999999999996,34.025
35.521,34.804,35.094,36.53,34.935,34.012
35.509,34.795,35.08,36.566,34.923,34.0
35.5,34.789,35.067,36.59,34.912,33.988
35.49,34.787,35.055,36.602,34.903,33.976
35.48,34.789,35.043,36.603,34.895,33.965
35.47,34.794000000000004,35.031,36.594,34.889,33.954
35.459,34.803000000000004,35.018,36.576,34.885,33.944
35.446999999999996,34.815,35.004,36.551,34.882,33.935
35.433,34.828,34.989000000000004,36.519,34.88,33.928000000000004
35.417,34.842,34.974000000000004,36.483000000000004,34.879,33.924
35.4,34.856,34.96,36.443000000000005,34.879,33.923
35.382,34.87,34.945,36.400999999999996,34.879,33.926
35.364000000000004,34.884,34.931,36.359,34.879,33.933
35.345,34.899,34.919000000000004,36.316,34.879,33.946999999999996
35.326,34.916,34.907,36.273,34.876,33.968
35.306999999999995,34.937,34.896,36.232,34.872,33.999
35.287,34.963,34.885,36.192,34.864000000000004,34.042
35.266999999999996,34.995,34.874,36.154,34.854,34.098
35.246,35.033,34.863,36.119,34.841,34.168
35.226,35.078,34.853,36.088,34.826,34.251
35.205999999999996,35.133,34.843,36.061,34.806999999999995,34.345
35.186,35.196999999999996,34.834,36.037,34.787,34.451
35.167,35.271,34.827,36.018,34.765,34.565
35.150999999999996,35.355,34.821999999999996,36.001,34.744,34.689
35.137,35.45,34.819,35.986999999999995,34.724000000000004,34.819
35.126999999999995,35.554,34.819,35.975,34.705999999999996,34.954
35.121,35.665,34.821,35.964,34.691,35.093
35.119,35.783,34.825,35.953,34.678000000000004,35.233000000000004
35.121,35.905,34.832,35.941,34.672,35.373000000000005
35.124,36.027,34.84,35.928000000000004,34.673,35.510999999999996
35.128,36.145,34.848,35.914,34.683,35.645
35.133,36.257,34.858000000000004,35.899,34.701,35.772
35.135,36.361,34.868,35.882,34.725,35.891999999999996
35.135999999999996,36.458,34.879,35.863,34.751999999999995,36.004
35.133,36.547,34.891999999999996,35.841,34.781,36.106
35.128,36.626,34.907,35.817,34.809,36.198
35.124,36.695,34.926,35.792,34.834,36.278
35.121,36.754,34.948,35.765,34.853,36.347
35.119,36.801,34.975,35.736999999999995,34.866,36.403
35.118,36.835,35.005,35.709,34.872,36.448
35.117,36.858000000000004,35.039,35.681,34.87,36.481
35.114000000000004,36.869,35.077,35.653,34.861999999999995,36.504
35.111,36.869,35.12,35.626,34.847,36.516999999999996
35.105,36.86,35.168,35.6,34.826,36.521
35.099000000000004,36.843,35.22,35.577,34.8,36.516999999999996
35.091,36.819,35.278,35.556999999999995,34.771,36.506
35.082,36.79,35.339,35.541,34.739000000000004,36.489000000000004
35.071999999999996,36.758,35.402,35.528,34.705,36.466
35.061,36.723,35.467,35.519,34.671,36.439
35.049,36.688,35.532,35.513000000000005,34.638000000000005,36.408
35.036,36.652,35.595,35.510999999999996,34.608000000000004,36.375
35.023,36.619,35.654,35.513000000000005,34.58,36.34
35.01,36.586999999999996,35.71,35.516,34.556999999999995,36.305
34.997,36.556999999999995,35.760999999999996,35.522,34.538000000000004,36.268
34.984,36.53,35.804,35.529,34.524,36.231
34.972,36.506,35.841,35.537,34.515,36.193000000000005
34.961,36.484,35.87,35.544000000000004,34.510999999999996,36.155
34.951,36.466,35.893,35.552,34.512,36.117
34.941,36.45,35.909,35.561,34.515,36.078
34.93,36.436,35.92,35.57,34.52,36.04
34.918,36.423,35.925,35.58,34.525,36.003
34.905,36.412,35.925,35.591,34.529,35.965
34.891999999999996,36.403,35.919000000000004,35.603,34.532,35.928000000000004
34.878,36.397,35.909,35.615,34.534,35.89
34.865,36.391999999999996,35.895,35.626,34.535,35.852
34.853,36.39,35.878,35.638000000000005,34.534,35.813
34.844,36.389,35.859,35.649,34.532,35.772
34.836,36.39,35.838,35.659,34.529,35.73
34.830999999999996,36.389,35.816,35.666,34.527,35.688
34.829,36.387,35.792,35.671,34.525,35.645
34.828,36.382,35.766,35.672,34.524,35.603
34.83,36.373000000000005,35.74,35.67,34.525,35.561
34.832,36.359,35.711,35.664,34.525999999999996,35.521
34.834,36.34,35.68,35.654,34.528,35.48
34.835,36.315,35.646,35.639,34.529,35.441
34.835,36.286,35.611,35.621,34.53,35.402
34.834,36.254,35.573,35.599000000000004,34.53,35.363
34.833,36.22,35.535,35.575,34.529,35.325
34.83,36.184,35.495,35.548,34.525999999999996,35.289
34.827,36.149,35.454,35.521,34.522,35.253
34.824,36.114000000000004,35.412,35.493,34.516999999999996,35.219
34.82,36.080999999999996,35.369,35.467,34.512,35.186
34.815,36.051,35.326,35.445,34.506,35.154
34.808,36.023,35.282,35.429,34.501999999999995,35.124
34.799,36.0,35.236999999999995,35.421,34.498000000000005,35.096
34.787,35.979,35.193000000000005,35.418,34.495,35.071
34.773,35.961999999999996,35.149,35.42,34.494,35.048
34.758,35.946999999999996,35.106,35.423,34.493,35.028
34.742,35.935,35.064,35.426,34.494,35.012
34.727,35.925,35.024,35.428000000000004,34.497,34.999
34.713,35.916,34.986,35.425,34.501,34.99
34.701,35.91,34.952,35.419000000000004,34.507,34.986
34.692,35.905,34.921,35.408,34.512,34.986
34.684,35.900999999999996,34.894,35.391999999999996,34.516,34.991
34.679,35.897,34.869,35.373000000000005,34.516999999999996,34.999
34.676,35.895,34.849000000000004,35.349000000000004,34.516,35.01
34.675,35.891999999999996,34.832,35.323,34.512,35.022
34.677,35.888000000000005,34.82,35.294000000000004,34.504,35.037
34.679,35.884,34.813,35.265,34.493,35.053000000000004
34.681,35.878,34.812,35.234,34.481,35.07
34.68,35.87,34.814,35.205,34.468,35.086999999999996
34.678000000000004,35.861999999999995,34.821,35.177,34.454,35.104
34.672,35.853,34.830999999999996,35.150999999999996,34.441,35.12
34.664,35.843,34.845,35.126999999999995,34.43,35.135999999999996
34.654,35.833,34.86,35.107,34.421,35.150999999999996
34.643,35.825,34.879,35.091,34.415,35.164
34.632,35.819,34.9,35.079,34.412,35.175
34.62,35.815,34.923,35.069,34.412,35.181
34.609,35.815,34.949,35.063,34.415,35.185
34.599000000000004,35.818000000000005,34.978,35.059,34.42,35.184
34.592,35.824,35.009,35.056,34.425,35.181999999999995
34.586,35.832,35.04,35.054,34.431,35.177
34.583,35.841,35.071999999999996,35.054,34.437,35.171
34.583,35.85,35.102,35.055,34.442,35.163000000000004
34.585,35.858000000000004,35.13,35.055,34.446,35.154
34.586999999999996,35.864000000000004,35.154,35.055,34.448,35.145
34.589,35.866,35.175,35.052,34.448,35.135
34.59,35.866,35.19,35.047,34.446999999999996,35.125
34.591,35.861999999999995,35.201,35.04,34.445,35.115
34.591,35.854,35.207,35.032,34.442,35.105
34.59,35.843,35.21,35.023,34.438,35.094
34.588,35.83,35.207,35.014,34.433,35.083
34.586,35.815,35.2,35.006,34.428000000000004,35.071
34.583,35.799,35.189,34.997,34.422,35.056999999999995
34.579,35.783,35.175,34.988,34.417,35.042
34.573,35.766999999999996,35.159,34.98,34.411,35.025
34.566,35.751,35.141999999999996,34.974000000000004,34.405,35.007
34.556,35.736,35.124,34.968,34.4,34.986999999999995
34.545,35.722,35.105,34.964,34.397,34.967
34.533,35.709,35.086999999999996,34.961,34.394,34.945
34.52,35.696999999999996,35.07,34.959,34.394,34.922
34.507,35.686,35.053000000000004,34.959,34.394,34.898
34.495,35.674,35.037,34.96,34.396,34.875
34.486,35.663000000000004,35.021,34.963,34.399,34.852
34.48,35.652,35.003,34.967,34.402,34.83
34.477,35.639,34.985,34.97,34.404,34.808
34.477,35.626999999999995,34.966,34.974000000000004,34.406,34.787
34.48,35.613,34.946,34.978,34.406,34.766
34.484,35.599000000000004,34.925,34.982,34.405,34.746
34.488,35.583,34.905,34.985,34.402,34.726
34.493,35.567,34.887,34.986999999999995,34.398,34.705999999999996
34.498000000000005,35.549,34.869,34.986999999999995,34.391999999999996,34.687
34.501,35.531,34.855,34.986999999999995,34.383,34.667
34.501,35.510999999999996,34.842,34.984,34.374,34.648
34.497,35.493,34.832,34.981,34.363,34.631
34.49,35.474000000000004,34.823,34.977,34.351,34.614000000000004
34.479,35.455999999999996,34.815,34.972,34.339,34.597
34.464,35.437,34.806999999999995,34.967,34.328,34.58
34.448,35.42,34.799,34.961,34.318000000000005,34.563
34.43,35.403,34.79,34.954,34.311,34.548
34.411,35.387,34.78,34.946,34.308,34.533
34.393,35.373000000000005,34.77,34.935,34.309,34.52
34.376999999999995,35.361,34.76,34.922,34.317,34.509
34.363,35.351,34.75,34.907,34.333,34.499
34.352,35.341,34.742,34.891,34.359,34.49
34.345,35.332,34.735,34.874,34.397,34.482
34.342,35.323,34.728,34.86,34.45,34.474000000000004
34.345,35.317,34.722,34.847,34.516999999999996,34.468
34.355,35.311,34.716,34.836999999999996,34.603,34.461999999999996
34.373000000000005,35.308,34.71,34.83,34.707,34.458
34.400999999999996,35.306999999999995,34.704,34.826,34.830999999999996,34.454
34.441,35.308,34.698,34.825,34.975,34.452
34.495,35.309,34.691,34.827,35.138000000000005,34.45
34.564,35.31,34.685,34.83,35.32,34.448
34.65,35.309,34.679,34.835,35.516999999999996,34.445
34.751,35.306999999999995,34.674,34.84,35.728,34.441
34.868,35.303000000000004,34.669000000000004,34.845,35.948,34.437
34.998000000000005,35.297,34.664,34.848,36.173,34.431999999999995
35.138000000000005,35.289,34.661,34.85,36.399,34.427
35.284,35.28,34.658,34.848,36.622,34.42
35.433,35.269,34.656,34.845,36.838,34.414
35.582,35.258,34.653,34.84,37.043,34.406
35.728,35.248000000000005,34.650999999999996,34.832,37.235,34.399
35.868,35.238,34.649,34.824,37.409,34.391
36.001,35.231,34.648,34.814,37.565,34.385
36.125,35.225,34.649,34.802,37.702,34.379
36.239000000000004,35.222,34.649,34.791,37.818000000000005,34.373000000000005
36.342,35.221,34.650999999999996,34.78,37.914,34.368
36.433,35.221,34.652,34.771,37.99,34.361999999999995
36.510999999999996,35.221,34.653,34.764,38.047,34.356
36.576,35.222,34.654,34.759,38.085,34.351
36.626999999999995,35.221,34.654,34.756,38.106,34.345
36.666,35.219,34.653,34.754,38.111999999999995,34.339
36.692,35.216,34.65,34.754,38.105,34.332
36.705999999999996,35.21,34.646,34.755,38.086999999999996,34.324
36.709,35.202,34.641999999999996,34.756,38.059,34.315
36.702,35.193000000000005,34.635999999999996,34.757,38.024,34.306
36.684,35.181999999999995,34.631,34.758,37.984,34.297
36.656,35.17,34.625,34.760999999999996,37.941,34.29
36.621,35.158,34.62,34.766999999999996,37.896,34.285
36.580999999999996,35.145,34.616,34.777,37.85,34.283
36.537,35.133,34.611999999999995,34.791,37.805,34.282
36.493,35.121,34.609,34.81,37.762,34.282
36.449,35.11,34.606,34.833,37.721,34.283
36.407,35.1,34.603,34.861,37.684,34.283
36.365,35.092,34.598,34.894,37.650999999999996,34.282
36.325,35.085,34.592,34.933,37.622,34.279
36.286,35.080999999999996,34.584,34.978,37.597,34.273
36.25,35.08,34.576,35.03,37.577,34.265
36.216,35.080999999999996,34.566,35.09,37.56,34.254
36.186,35.084,34.556999999999995,35.158,37.546,34.24
36.159,35.09,34.549,35.234,37.535,34.224000000000004
36.135999999999996,35.096,34.542,35.319,37.525,34.207
36.116,35.103,34.536,35.411,37.516,34.19
36.099000000000004,35.109,34.532,35.509,37.507,34.175
36.084,35.115,34.53,35.613,37.497,34.161
36.07,35.118,34.529,35.72,37.486999999999995,34.149
36.058,35.118,34.531,35.83,37.477,34.141
36.047,35.115,34.535,35.941,37.466,34.137
36.039,35.109,34.539,36.05,37.455,34.14
36.034,35.099000000000004,34.544000000000004,36.155,37.445,34.150999999999996
36.031,35.086,34.55,36.254,37.434,34.172
36.03,35.073,34.555,36.347,37.423,34.204
36.03,35.059,34.561,36.431,37.412,34.246
36.03,35.045,34.566,36.505,37.4,34.301
36.03,35.033,34.57,36.567,37.387,34.367
36.029,35.021,34.574,36.618,37.372,34.446
36.028,35.010999999999996,34.577,36.657,37.355,34.538000000000004
36.025,35.004,34.579,36.684,37.34,34.641999999999996
36.022,34.999,34.578,36.702,37.33,34.758
36.016,34.996,34.576,36.709,37.324,34.883
36.007,34.995,34.573,36.709,37.319,35.015
35.996,34.995,34.57,36.699,37.315,35.152
35.981,34.997,34.565,36.683,37.306999999999995,35.293
35.963,34.999,34.559,36.66,37.295,35.435
35.944,35.0,34.553000000000004,36.632,37.277,35.576
35.921,35.001999999999995,34.545,36.6,37.251999999999995,35.714
35.897,35.003,34.538000000000004,36.564,37.221,35.846
35.871,35.004,34.53,36.525,37.184,35.971
35.843,35.004,34.523,36.484,37.141999999999996,36.088
35.814,35.004,34.515,36.443000000000005,37.098,36.193000000000005
35.785,35.003,34.507,36.400999999999996,37.053000000000004,36.288000000000004
35.755,35.001,34.499,36.36,37.008,36.371
35.726,34.997,34.49,36.321,36.966,36.441
35.699,34.993,34.481,36.283,36.929,36.498000000000005
35.675,34.986999999999995,34.472,36.249,36.896,36.54
35.654,34.978,34.464,36.218,36.869,36.57
35.635999999999996,34.968,34.457,36.19,36.848,36.589
35.622,34.955,34.453,36.166,36.832,36.599000000000004
35.611,34.942,34.451,36.147,36.82,36.6
35.603,34.928000000000004,34.45,36.13,36.811,36.594
35.599000000000004,34.915,34.452,36.117,36.805,36.583
35.597,34.903,34.455,36.106,36.801,36.567
35.598,34.893,34.457,36.098,36.797,36.548
35.602,34.885,34.46,36.09,36.795,36.528
35.607,34.88,34.461,36.083,36.792,36.506
35.613,34.878,34.46,36.074,36.79,36.483000000000004
35.62,34.879,34.458,36.065,36.787,36.458
35.628,34.885,34.455,36.055,36.785,36.431
35.637,34.895,34.453,36.042,36.782,36.402
35.647,34.91,34.452,36.027,36.778,36.37
35.657,34.928000000000004,34.452,36.01,36.773,36.336999999999996
35.666,34.952,34.454,35.991,36.765,36.301
35.675,34.98,34.455999999999996,35.97,36.755,36.263000000000005
35.683,35.013000000000005,34.458,35.946999999999996,36.745,36.223
35.689,35.053000000000004,34.459,35.922,36.732,36.183
35.694,35.099000000000004,34.46,35.896,36.719,36.141999999999996
35.696999999999996,35.154,34.458,35.869,36.705,36.101
35.696999999999996,35.218,34.455,35.842,36.691,36.061
35.694,35.29,34.451,35.815,36.677,36.02
35.688,35.371,34.446,35.789,36.663000000000004,35.98
35.679,35.461,34.44,35.765,36.649,35.941
35.668,35.558,34.434,35.741,36.635,35.902
35.654,35.662,34.429,35.719,36.621,35.863
35.638000000000005,35.772,34.425,35.699,36.608000000000004,35.824
35.621,35.885,34.421,35.68,36.594,35.784
35.604,35.999,34.419000000000004,35.664,36.58,35.742
35.588,36.111,34.417,35.650999999999996,36.566,35.699
35.574,36.221,34.415,35.641,36.551,35.656
35.56,36.324,34.412,35.635,36.536,35.611999999999995
35.546,36.42,34.409,35.633,36.519,35.569
35.533,36.507,34.405,35.634,36.501999999999995,35.527
35.519,36.580999999999996,34.4,35.639,36.483000000000004,35.486
35.505,36.644,34.393,35.646,36.461999999999996,35.445
35.489000000000004,36.693000000000005,34.384,35.656,36.439,35.405
35.473,36.73,34.376,35.668,36.414,35.364000000000004
35.455999999999996,36.753,34.368,35.681,36.387,35.325
35.439,36.765,34.36,35.693000000000005,36.357,35.288000000000004
35.421,36.766999999999996,34.354,35.705,36.327,35.254
35.4,36.762,34.349000000000004,35.714,36.296,35.222
35.375,36.751999999999995,34.345,35.721,36.264,35.193000000000005
35.348,36.736,34.343,35.726,36.233000000000004,35.169000000000004
35.318000000000005,36.717,34.344,35.728,36.203,35.148
35.288000000000004,36.696,34.349000000000004,35.727,36.174,35.131
35.258,36.672,34.36,35.725,36.146,35.118
35.23,36.648,34.379,35.721,36.121,35.109
35.205,36.623000000000005,34.408,35.718,36.097,35.105
35.184,36.597,34.449,35.716,36.074,35.105
35.167,36.57,34.503,35.714,36.054,35.109
35.154,36.544000000000004,34.571999999999996,35.713,36.036,35.115
35.146,36.518,34.655,35.713,36.019,35.125
35.141,36.494,34.751,35.711999999999996,36.001999999999995,35.135999999999996
35.141,36.47,34.86,35.711,35.986999999999995,35.149
35.144,36.449,34.98,35.708,35.971,35.164
35.149,36.429,35.11,35.703,35.955,35.18
35.155,36.412,35.248000000000005,35.695,35.938,35.196
35.162,36.397,35.393,35.683,35.921,35.214
35.169000000000004,36.384,35.545,35.667,35.903,35.233000000000004
35.174,36.372,35.702,35.647,35.883,35.251999999999995
35.177,36.361,35.861999999999995,35.623000000000005,35.861999999999995,35.271
35.177,36.352,36.022,35.597,35.84,35.291
35.174,36.345,36.181,35.57,35.816,35.309
35.167,36.338,36.335,35.544000000000004,35.791,35.325
35.156,36.333,36.483000000000004,35.519,35.766,35.34
35.143,36.327,36.62,35.496,35.74,35.352
35.126999999999995,36.321,36.745,35.477,35.715,35.361999999999995
35.111,36.314,36.855,35.461,35.691,35.371
35.096,36.305,36.949,35.448,35.67,35.379
35.082,36.293,37.025999999999996,35.438,35.652,35.385
35.07,36.278,37.085,35.43,35.637,35.39
35.06,36.26,37.128,35.423,35.624,35.393
35.051,36.236,37.153,35.416,35.615,35.393
35.045,36.208,37.163000000000004,35.409,35.608000000000004,35.391
35.041,36.177,37.157,35.4,35.604,35.385999999999996
35.038000000000004,36.141999999999996,37.139,35.39,35.601,35.38
35.036,36.105,37.11,35.376999999999995,35.6,35.371
35.034,36.066,37.071,35.361,35.598,35.361
35.03,36.027,37.024,35.343,35.596,35.35
35.025,35.99,36.973,35.323,35.592,35.343
35.02,35.953,36.917,35.301,35.586999999999996,35.336999999999996
35.014,35.918,36.859,35.279,35.579,35.334
35.009,35.885,36.8,35.256,35.569,35.332
35.004,35.856,36.74,35.234,35.556,35.329
35.0,35.830999999999996,36.68,35.213,35.541,35.324
34.997,35.811,36.618,35.193000000000005,35.524,35.315
34.994,35.797,36.553000000000004,35.175,35.506,35.302
34.991,35.788000000000004,36.485,35.159,35.486999999999995,35.284
34.986999999999995,35.784,36.418,35.145,35.468,35.260999999999996
34.983000000000004,35.784,36.355,35.132,35.449,35.233000000000004
34.979,35.788000000000004,36.297,35.121,35.43,35.202
34.975,35.795,36.247,35.111999999999995,35.412,35.167
34.972,35.804,36.205999999999996,35.104,35.396,35.131
34.969,35.815,36.174,35.098,35.381,35.094
34.966,35.826,36.150999999999996,35.093,35.369,35.058
34.961999999999996,35.838,36.137,35.09,35.358000000000004,35.021
34.959,35.849000000000004,36.132,35.088,35.349000000000004,34.986
34.955,35.859,36.134,35.086,35.342,34.952
34.951,35.868,36.141999999999996,35.086,35.336999999999996,34.919000000000004
34.948,35.876,36.156,35.086,35.334,34.89
34.944,35.881,36.173,35.086,35.330999999999996,34.861999999999995
34.94,35.883,36.192,35.085,35.329,34.838
34.934,35.882,36.21,35.084,35.326,34.816
34.927,35.879,36.227,35.082,35.323,34.797
34.918,35.874,36.24,35.078,35.318000000000005,34.781
34.908,35.868,36.249,35.074,35.311,34.766
34.896,35.863,36.251999999999995,35.068000000000005,35.302,34.753
34.884,35.859,36.25,35.061,35.291,34.742
34.874,35.855,36.241,35.052,35.279,34.732
34.864000000000004,35.853,36.227,35.043,35.266,34.724000000000004
34.856,35.852,36.209,35.033,35.253,34.716
34.85,35.851,36.185,35.021,35.241,34.709
34.846,35.851,36.157,35.009,35.228,34.703
34.845,35.85,36.126,34.998000000000005,35.217,34.695
34.845,35.846,36.093,34.986999999999995,35.207,34.687
34.847,35.84,36.059,34.978,35.196999999999996,34.678000000000004
34.849000000000004,35.830999999999996,36.025,34.969,35.189,34.669000000000004
34.852,35.821,35.992,34.961999999999996,35.181999999999995,34.659
34.853,35.808,35.96,34.955999999999996,35.175,34.65
34.852,35.793,35.93,34.951,35.168,34.641
34.847,35.777,35.904,34.946,35.16,34.632
34.839,35.76,35.881,34.943000000000005,35.150999999999996,34.622
34.828,35.741,35.861999999999995,34.941,35.141,34.611999999999995
34.813,35.721,35.846,34.939,35.128,34.602
34.797,35.7,35.834,34.938,35.115,34.591
34.779,35.679,35.826,34.937,35.099000000000004,34.58
34.76,35.659,35.82,34.935,35.083,34.568000000000005
34.74,35.639,35.817,34.931999999999995,35.067,34.556999999999995
34.719,35.621,35.815,34.928000000000004,35.051,34.545
34.699,35.604,35.816,34.924,35.036,34.534
34.679,35.59,35.818000000000005,34.919000000000004,35.022,34.523
34.661,35.577,35.821,34.913000000000004,35.009,34.514
34.645,35.566,35.825,34.907,34.997,34.506
34.633,35.556999999999995,35.828,34.9,34.985,34.499
34.623000000000005,35.549,35.830999999999996,34.891999999999996,34.972,34.494
34.618,35.541,35.832,34.885,34.96,34.489000000000004
34.616,35.533,35.832,34.876999999999995,34.949,34.486
34.617,35.525,35.83,34.87,34.938,34.484
34.622,35.516999999999996,35.827,34.863,34.927,34.483000000000004
34.629,35.507,35.823,34.857,34.917,34.482
34.635999999999996,35.497,35.817,34.853,34.907,34.482
34.641999999999996,35.486,35.809,34.851,34.898,34.482
34.647,35.475,35.8,34.85,34.889,34.481
34.649,35.461999999999996,35.79,34.85,34.881,34.48
34.648,35.449,35.78,34.852,34.874,34.478
34.645,35.436,35.768,34.855,34.867,34.474000000000004
34.639,35.424,35.757,34.858000000000004,34.861,34.47
34.631,35.412,35.746,34.86,34.854,34.464
34.621,35.4,35.736,34.863,34.848,34.458
34.611,35.39,35.727,34.865,34.841,34.451
34.602,35.382,35.719,34.866,34.833,34.442
34.594,35.374,35.711999999999996,34.866,34.824,34.431
34.586999999999996,35.369,35.704,34.864000000000004,34.815,34.42
