Trial 1:0back,Trial 2:2back,Trial 3:3back,Trial 4:2back,Trial 5:3back,Trial 6:0back
35.588,35.119,43.43600000000001,33.086,31.614,42.138999999999996
36.041,35.04,43.388999999999996,33.037,31.592,42.083
36.492,34.965,43.332,32.986,31.576999999999998,42.016999999999996
36.934,34.894,43.266999999999996,32.933,31.572,41.945
37.363,34.826,43.195,32.879,31.581,41.86600000000001
37.774,34.763000000000005,43.115,32.824,31.608,41.785
38.164,34.704,43.03,32.768,31.656,41.701
38.528,34.652,42.93899999999999,32.711,31.729,41.617
38.865,34.607,42.843999999999994,32.654,31.83,41.533
39.173,34.568000000000005,42.745,32.597,31.961,41.446999999999996
39.448,34.535,42.643,32.54,32.126,41.361999999999995
39.691,34.508,42.54,32.484,32.325,41.276
39.900999999999996,34.485,42.437,32.429,32.556999999999995,41.191
40.078,34.466,42.336000000000006,32.375,32.824,41.108000000000004
40.224000000000004,34.449,42.236000000000004,32.321,33.122,41.027
40.34,34.434,42.138000000000005,32.269,33.45,40.946
40.428000000000004,34.42,42.042,32.217,33.805,40.864000000000004
40.49,34.407,41.946000000000005,32.168,34.185,40.781
40.529,34.391999999999996,41.849,32.12,34.586,40.696999999999996
40.547,34.376,41.75,32.075,35.006,40.61
40.548,34.358000000000004,41.646,32.032,35.438,40.523
40.535,34.339,41.537,31.991,35.879,40.433
40.509,34.316,41.424,31.953000000000003,36.324,40.34
40.473,34.291,41.305,31.916,36.769,40.245
40.428000000000004,34.262,41.181000000000004,31.879,37.21,40.146
40.375,34.229,41.052,31.843000000000004,37.643,40.043
40.314,34.19,40.919000000000004,31.81,38.063,39.936
40.247,34.146,40.783,31.78,38.466,39.823
40.173,34.096,40.644,31.756,38.848,39.704
40.093,34.042,40.503,31.74,39.205,39.579
40.005,33.985,40.363,31.735,39.536,39.449
39.912,33.927,40.222,31.744,39.836999999999996,39.314
39.813,33.868,40.080999999999996,31.77,40.108000000000004,39.176
39.709,33.811,39.94,31.816,40.347,39.035
39.6,33.757,39.8,31.885,40.555,38.891
39.489000000000004,33.707,39.661,31.979,40.733000000000004,38.746
39.376999999999995,33.661,39.523,32.1,40.882,38.6
39.263000000000005,33.62,39.387,32.25,41.003,38.455999999999996
39.149,33.583,39.251,32.43,41.097,38.315
39.035,33.548,39.116,32.641,41.167,38.18
38.921,33.514,38.983000000000004,32.882,41.211999999999996,38.052
38.808,33.481,38.851,33.152,41.238,37.931
38.694,33.446,38.723,33.448,41.244,37.819
38.580999999999996,33.408,38.599000000000004,33.769,41.233999999999995,37.715
38.467,33.365,38.483000000000004,34.109,41.21,37.62
38.353,33.317,38.374,34.466,41.174,37.533
38.239000000000004,33.264,38.273,34.836,41.126999999999995,37.454
38.125,33.204,38.181,35.215,41.071000000000005,37.38
38.013000000000005,33.139,38.097,35.598,41.007,37.312
37.900999999999996,33.07,38.02,35.98,40.937,37.249
37.79,32.999,37.952,36.356,40.859,37.192
37.68,32.927,37.889,36.72,40.775999999999996,37.139
37.571,32.855,37.832,37.068000000000005,40.687,37.09
37.463,32.784,37.778,37.397,40.594,37.045
37.358000000000004,32.716,37.728,37.705,40.496,37.003
37.255,32.65,37.679,37.99,40.395,36.964
37.156,32.586999999999996,37.632,38.253,40.29,36.928000000000004
37.061,32.527,37.586999999999996,38.492,40.181999999999995,36.893
36.97,32.469,37.541,38.708,40.073,36.858000000000004
36.887,32.413000000000004,37.495,38.900999999999996,39.961999999999996,36.824
36.81,32.36,37.448,39.071,39.85,36.789
36.741,32.308,37.399,39.218,39.736,36.754
36.678000000000004,32.258,37.348,39.343,39.621,36.717
36.624,32.209,37.296,39.446,39.504,36.678000000000004
36.576,32.163000000000004,37.241,39.529,39.385,36.635999999999996
36.535,32.118,37.185,39.592,39.263000000000005,36.592
36.501,32.074,37.126999999999995,39.635999999999996,39.139,36.544000000000004
36.473,32.031,37.067,39.662,39.013000000000005,36.495
36.452,31.988000000000003,37.007,39.672,38.885999999999996,36.443000000000005
36.437,31.945999999999998,36.946,39.668,38.759,36.39
36.426,31.903000000000002,36.885,39.653,38.632,36.336
36.42,31.86,36.823,39.63,38.506,36.28
36.416,31.816999999999997,36.76,39.602,38.381,36.224000000000004
36.414,31.774,36.694,39.568000000000005,38.259,36.165
36.411,31.730999999999998,36.625,39.531,38.141,36.104
36.407,31.688000000000002,36.553000000000004,39.49,38.027,36.039
36.399,31.644000000000002,36.478,39.444,37.916,35.971
36.388000000000005,31.601,36.4,39.394,37.811,35.9
36.372,31.557,36.32,39.339,37.711,35.827
36.351,31.514,36.239000000000004,39.28,37.616,35.751
36.326,31.471999999999998,36.157,39.219,37.528,35.674
36.296,31.430999999999997,36.076,39.156,37.445,35.596
36.262,31.39,35.995,39.091,37.368,35.518
36.224000000000004,31.351,35.914,39.025,37.295,35.439
36.181999999999995,31.313000000000002,35.833,38.958,37.227,35.359
36.135999999999996,31.278000000000002,35.75,38.89,37.165,35.277
36.085,31.244,35.666,38.821,37.109,35.193000000000005
36.031,31.212,35.58,38.751,37.059,35.108000000000004
35.972,31.180999999999997,35.491,38.679,37.016999999999996,35.023
35.908,31.15,35.400999999999996,38.604,36.981,34.938
35.841,31.118000000000002,35.308,38.525,36.95,34.854
35.77,31.086,35.215,38.441,36.924,34.773
35.696,31.052,35.122,38.352,36.902,34.695
35.617,31.017,35.03,38.258,36.882,34.62
35.535,30.979,34.94,38.16,36.865,34.549
35.45,30.939,34.852,38.059,36.849000000000004,34.479
35.361999999999995,30.899,34.766999999999996,37.955999999999996,36.834,34.412
35.272,30.86,34.681999999999995,37.851,36.82,34.345
35.181999999999995,30.824,34.599000000000004,37.744,36.806,34.278
35.091,30.795,34.516999999999996,37.635999999999996,36.793,34.21
35.001999999999995,30.775,34.436,37.525,36.78,34.141999999999996
34.914,30.769000000000002,34.355,37.413000000000004,36.765,34.071999999999996
34.827,30.78,34.275999999999996,37.301,36.749,34.001
34.741,30.811999999999998,34.196999999999996,37.191,36.732,33.931
34.656,30.868000000000002,34.118,37.083,36.711999999999996,33.86
34.571,30.95,34.038000000000004,36.978,36.691,33.791
34.486999999999995,31.06,33.959,36.876,36.666,33.723
34.403,31.198,33.879,36.777,36.639,33.655
34.321,31.364,33.8,36.681,36.608000000000004,33.588
34.239000000000004,31.558000000000003,33.721,36.588,36.574,33.52
34.16,31.776,33.641999999999996,36.498000000000005,36.536,33.452
34.082,32.016999999999996,33.564,36.413000000000004,36.493,33.384
34.006,32.278,33.488,36.330999999999996,36.446,33.315
33.934,32.556999999999995,33.413000000000004,36.255,36.395,33.247
33.866,32.849000000000004,33.34,36.184,36.339,33.181
33.802,33.153,33.269,36.118,36.281,33.116
33.743,33.465,33.199,36.056999999999995,36.219,33.054
33.688,33.782,33.13,36.001,36.155,32.994
33.638000000000005,34.101,33.063,35.949,36.088,32.936
33.59,34.419000000000004,32.997,35.902,36.02,32.88
33.546,34.732,32.931,35.858000000000004,35.949,32.825
33.505,35.037,32.867,35.818000000000005,35.875,32.772
33.465,35.33,32.803000000000004,35.781,35.798,32.722
33.427,35.609,32.74,35.746,35.719,32.673
33.389,35.869,32.678000000000004,35.713,35.638000000000005,32.626
33.351,36.11,32.617,35.68,35.556,32.579
33.313,36.33,32.556999999999995,35.648,35.473,32.534
33.274,36.527,32.5,35.616,35.39,32.49
33.233000000000004,36.702,32.445,35.584,35.308,32.446999999999996
33.192,36.855,32.393,35.55,35.226,32.405
33.149,36.986,32.346,35.515,35.146,32.366
33.107,37.096,32.303000000000004,35.478,35.068000000000005,32.328
33.064,37.187,32.264,35.438,34.991,32.293
33.021,37.258,32.228,35.395,34.915,32.259
32.979,37.312,32.195,35.349000000000004,34.841,32.226
32.938,37.349000000000004,32.164,35.3,34.769,32.194
32.898,37.371,32.135,35.248000000000005,34.698,32.163000000000004
32.859,37.38,32.106,35.195,34.63,32.132
32.819,37.376999999999995,32.077,35.139,34.563,32.102
32.779,37.363,32.047,35.080999999999996,34.499,32.073
32.74,37.341,32.015,35.021,34.435,32.044000000000004
32.702,37.311,31.980999999999998,34.957,34.372,32.016
32.664,37.275,31.944000000000003,34.891999999999996,34.309,31.989
32.628,37.235,31.905,34.825,34.247,31.963
32.594,37.19,31.864,34.756,34.185,31.936999999999998
32.561,37.143,31.820999999999998,34.687,34.123000000000005,31.912
32.531,37.092,31.778000000000002,34.616,34.062,31.886999999999997
32.503,37.038000000000004,31.735,34.546,34.001,31.864
32.477,36.98,31.694000000000003,34.477,33.942,31.843000000000004
32.453,36.919000000000004,31.655,34.41,33.885,31.823
32.429,36.855,31.619,34.344,33.83,31.805
32.405,36.786,31.587,34.278,33.777,31.787
32.38,36.711999999999996,31.56,34.213,33.727,31.769000000000002
32.353,36.634,31.537,34.148,33.68,31.750999999999998
32.324,36.55,31.519000000000002,34.083,33.635,31.733
32.293,36.464,31.504,34.019,33.593,31.715
32.26,36.375,31.491999999999997,33.957,33.553000000000004,31.698
32.226,36.283,31.48,33.896,33.516,31.683000000000003
32.189,36.189,31.469,33.836,33.48,31.668000000000003
32.152,36.093,31.456,33.779,33.445,31.654
32.114000000000004,35.996,31.44,33.722,33.41,31.64
32.076,35.897,31.42,33.667,33.374,31.625999999999998
32.039,35.796,31.397,33.613,33.336999999999996,31.612
32.003,35.694,31.368000000000002,33.559,33.298,31.596999999999998
31.968000000000004,35.59,31.336,33.506,33.257,31.581
31.934,35.484,31.3,33.453,33.215,31.563000000000002
31.901999999999997,35.376999999999995,31.261999999999997,33.4,33.173,31.541999999999998
31.872,35.269,31.224,33.347,33.131,31.52
31.844,35.162,31.186999999999998,33.295,33.089,31.496
31.818,35.056999999999995,31.151999999999997,33.242,33.048,31.471
31.795,34.955,31.121,33.191,33.008,31.444000000000003
31.773000000000003,34.856,31.094,33.141,32.969,31.418000000000003
31.752,34.762,31.07,33.09,32.931999999999995,31.392
31.732,34.672,31.05,33.039,32.898,31.366
31.713,34.586999999999996,31.033,32.986999999999995,32.865,31.340999999999998
31.693,34.507,31.017,32.934,32.835,31.316999999999997
31.674,34.431999999999995,31.002,32.879,32.806,31.294
31.654,34.363,30.988000000000003,32.823,32.779,31.272
31.633000000000003,34.3,30.971999999999998,32.766,32.753,31.25
31.611,34.243,30.955,32.71,32.726,31.229
31.589000000000002,34.191,30.936,32.653,32.696999999999996,31.209
31.568,34.147,30.914,32.596,32.667,31.189
31.548000000000002,34.108000000000004,30.889,32.538000000000004,32.634,31.17
31.531,34.075,30.859,32.479,32.599000000000004,31.151
31.518,34.047,30.826999999999998,32.419000000000004,32.561,31.133000000000003
31.509,34.023,30.791999999999998,32.357,32.521,31.113000000000003
31.506999999999998,34.003,30.756,32.295,32.479,31.094
31.515,33.985,30.72,32.233000000000004,32.436,31.074
31.537,33.967,30.686,32.172,32.391999999999996,31.055
31.576999999999998,33.949,30.653000000000002,32.111999999999995,32.349000000000004,31.037
31.64,33.93,30.624000000000002,32.054,32.308,31.022
31.73,33.91,30.598000000000003,31.998,32.269,31.011999999999997
31.851999999999997,33.888000000000005,30.575,31.943,32.233000000000004,31.009
32.009,33.864000000000004,30.555999999999997,31.888,32.201,31.016
32.204,33.838,30.539,31.834,32.173,31.037
32.439,33.811,30.523000000000003,31.779,32.149,31.074
32.714,33.784,30.506999999999998,31.725,32.13,31.131999999999998
33.029,33.757,30.49,31.671,32.117,31.215
33.382,33.73,30.471,31.619,32.11,31.325
33.771,33.701,30.45,31.566999999999997,32.111,31.465999999999998
34.191,33.672,30.426,31.517,32.12,31.641
34.639,33.641999999999996,30.401999999999997,31.469,32.139,31.854
35.107,33.611,30.379,31.423000000000002,32.169000000000004,32.105
35.59,33.579,30.36,31.379,32.211,32.397
36.080999999999996,33.547,30.349,31.337,32.269,32.73
36.571999999999996,33.514,30.351,31.295,32.346,33.103
37.058,33.48,30.371,31.254,32.444,33.514
37.532,33.446,30.416,31.213,32.568000000000005,33.963
37.989000000000004,33.411,30.491999999999997,31.171,32.72,34.443000000000005
38.425,33.376,30.605999999999998,31.13,32.905,34.951
38.835,33.341,30.76,31.089000000000002,33.123000000000005,35.479
39.217,33.306,30.96,31.049,33.378,36.022
39.569,33.271,31.208000000000002,31.011999999999997,33.668,36.571
39.891,33.235,31.506,30.976999999999997,33.995,37.121
40.181999999999995,33.196999999999996,31.851999999999997,30.945,34.354,37.666
40.444,33.156,32.244,30.916999999999998,34.742,38.198
40.677,33.111999999999995,32.68,30.892,35.156,38.711
40.883,33.065,33.153,30.871,35.589,39.2
41.06399999999999,33.015,33.659,30.857,36.038000000000004,39.66
41.221000000000004,32.964,34.191,30.849,36.497,40.088
41.354,32.912,34.74,30.849,36.96,40.479
41.465,32.861,35.299,30.861,37.422,40.833
41.553000000000004,32.812,35.863,30.886999999999997,37.878,41.148
41.62,32.766999999999996,36.423,30.929000000000002,38.323,41.424
41.665,32.725,36.975,30.991,38.751,41.66
41.691,32.687,37.514,31.074,39.16,41.858000000000004
41.696999999999996,32.654,38.036,31.18,39.545,42.019
41.684,32.625,38.538000000000004,31.31,39.903,42.146
41.653999999999996,32.599000000000004,39.016,31.465,40.233000000000004,42.24100000000001
41.607,32.574,39.466,31.645,40.533,42.306999999999995
41.547,32.551,39.885,31.849,40.801,42.347
41.473,32.525999999999996,40.271,32.076,41.037,42.364
41.39,32.5,40.621,32.323,41.24,42.36
41.298,32.469,40.934,32.588,41.41,42.338
41.201,32.433,41.211000000000006,32.869,41.548,42.3
41.1,32.391999999999996,41.449,33.162,41.655,42.248000000000005
40.996,32.345,41.651,33.461999999999996,41.733999999999995,42.184
40.891,32.294000000000004,41.816,33.766999999999996,41.785,42.108999999999995
40.787,32.239000000000004,41.946999999999996,34.071999999999996,41.813,42.025
40.681999999999995,32.181,42.04600000000001,34.374,41.818000000000005,41.935
40.579,32.121,42.11600000000001,34.671,41.803000000000004,41.841
40.475,32.062,42.161,34.959,41.771,41.744
40.372,32.004,42.183,35.235,41.725,41.646
40.268,31.95,42.18600000000001,35.499,41.666000000000004,41.548
40.162,31.9,42.174,35.746,41.596000000000004,41.451
40.055,31.855,42.15,35.975,41.516999999999996,41.355
39.946,31.816,42.114,36.183,41.431999999999995,41.261
39.836,31.781,42.068999999999996,36.37,41.342,41.17
39.723,31.75,42.016000000000005,36.535,41.25,41.082
39.607,31.721,41.955,36.679,41.153999999999996,40.995
39.488,31.691999999999997,41.886,36.802,41.056000000000004,40.911
39.368,31.660999999999998,41.809,36.907,40.957,40.828
39.245,31.628,41.726000000000006,36.994,40.856,40.748000000000005
39.121,31.590999999999998,41.636,37.065,40.754,40.67
38.997,31.55,41.538999999999994,37.12,40.65,40.593
38.872,31.505,41.438,37.161,40.542,40.518
38.747,31.456,41.333999999999996,37.189,40.431,40.442
38.623000000000005,31.405,41.226000000000006,37.205999999999996,40.316,40.365
38.501,31.354,41.118,37.213,40.196999999999996,40.285
38.382,31.302,41.008,37.213,40.073,40.2
38.265,31.25,40.899,37.205999999999996,39.945,40.109
38.154,31.2,40.789,37.195,39.815,40.010999999999996
38.048,31.151,40.679,37.179,39.683,39.906
37.946999999999996,31.103,40.569,37.158,39.549,39.794000000000004
37.853,31.057,40.46,37.134,39.414,39.676
37.766,31.011,40.349000000000004,37.106,39.277,39.551
37.685,30.968000000000004,40.238,37.073,39.138000000000005,39.421
37.61,30.926,40.124,37.037,38.998000000000005,39.286
37.541,30.885,40.007,36.999,38.856,39.148
37.477,30.846,39.887,36.958,38.714,39.009
37.418,30.809,39.763000000000005,36.916,38.573,38.869
37.363,30.773000000000003,39.635,36.872,38.435,38.729
37.312,30.74,39.504,36.827,38.301,38.592
37.265,30.71,39.371,36.782,38.173,38.455999999999996
37.221,30.684,39.236999999999995,36.736,38.052,38.321999999999996
37.181,30.664,39.103,36.691,37.939,38.192
37.144,30.651,38.968,36.647,37.834,38.067
37.11,30.647,38.834,36.602,37.738,37.946999999999996
37.08,30.656,38.7,36.556,37.650999999999996,37.832
37.051,30.678,38.568000000000005,36.507,37.573,37.722
37.024,30.715999999999998,38.437,36.455,37.503,37.617
36.999,30.773000000000003,38.306,36.399,37.441,37.519
36.975,30.848000000000003,38.175,36.339,37.388000000000005,37.428000000000004
36.952,30.943,38.043,36.275999999999996,37.341,37.343
36.929,31.059,37.911,36.209,37.3,37.265
36.908,31.197,37.781,36.139,37.265,37.192
36.888000000000005,31.358,37.652,36.064,37.235,37.125
36.866,31.541999999999998,37.527,35.985,37.209,37.064
36.843,31.747,37.407,35.902,37.186,37.006
36.816,31.971999999999998,37.294000000000004,35.815,37.167,36.952
36.786,32.217,37.188,35.725,37.15,36.900999999999996
36.749,32.479,37.092,35.632,37.135,36.852
36.705,32.755,37.003,35.537,37.12,36.805
36.653,33.041,36.923,35.442,37.105,36.759
36.592,33.334,36.849000000000004,35.349000000000004,37.088,36.714
36.522,33.631,36.779,35.258,37.07,36.67
36.445,33.926,36.711999999999996,35.171,37.048,36.626999999999995
36.359,34.216,36.647,35.088,37.025,36.584
36.266,34.497,36.584,35.008,37.0,36.541
36.167,34.765,36.522,34.933,36.973,36.498000000000005
36.064,35.015,36.461,34.861999999999995,36.945,36.454
35.957,35.246,36.400999999999996,34.796,36.916,36.41
35.849000000000004,35.455999999999996,36.342,34.735,36.885999999999996,36.363
35.741,35.644,36.285,34.681,36.855,36.314
35.635,35.809,36.23,34.634,36.823,36.260999999999996
35.532,35.952,36.176,34.593,36.789,36.205
35.434,36.074,36.123000000000005,34.558,36.754,36.143
35.343,36.175,36.071999999999996,34.529,36.717,36.076
35.258,36.259,36.02,34.504,36.678000000000004,36.005
35.18,36.326,35.969,34.482,36.637,35.93
35.109,36.376999999999995,35.918,34.464,36.591,35.853
35.044000000000004,36.414,35.867,34.446999999999996,36.542,35.774
34.985,36.439,35.816,34.434,36.486999999999995,35.694
34.93,36.453,35.765,34.423,36.426,35.613
34.879,36.457,35.714,34.413000000000004,36.36,35.532
34.829,36.452,35.661,34.404,36.29,35.45
34.781,36.44,35.607,34.393,36.215,35.367
34.733000000000004,36.422,35.551,34.381,36.138000000000005,35.282
34.681999999999995,36.398,35.492,34.367,36.058,35.196
34.629,36.368,35.429,34.349000000000004,35.978,35.108000000000004
34.573,36.332,35.363,34.329,35.898,35.016999999999996
34.513000000000005,36.29,35.292,34.306,35.819,34.926
34.45,36.241,35.218,34.283,35.74,34.834
34.383,36.186,35.141,34.259,35.661,34.743
34.313,36.125,35.06,34.234,35.582,34.653
34.24,36.059,34.977,34.207,35.501999999999995,34.565
34.165,35.988,34.893,34.177,35.419000000000004,34.479
34.088,35.913000000000004,34.806,34.144,35.335,34.396
34.009,35.835,34.718,34.106,35.249,34.316
33.931,35.754,34.631,34.066,35.16,34.238
33.853,35.671,34.543,34.022,35.07,34.164
33.775999999999996,35.585,34.457,33.975,34.979,34.092
33.702,35.497,34.371,33.925,34.887,34.024
33.631,35.407,34.287,33.873000000000005,34.795,33.957
33.564,35.316,34.204,33.819,34.703,33.894
33.501,35.224000000000004,34.121,33.760999999999996,34.613,33.832
33.444,35.13,34.039,33.7,34.525,33.773
33.391,35.034,33.957,33.637,34.439,33.716
33.343,34.937,33.874,33.571,34.357,33.66
33.3,34.838,33.791,33.504,34.278,33.605
33.263000000000005,34.74,33.707,33.436,34.203,33.549
33.229,34.641999999999996,33.621,33.368,34.132,33.493
33.2,34.546,33.534,33.299,34.065,33.436
33.175,34.454,33.446999999999996,33.232,34.001999999999995,33.378
33.152,34.365,33.36,33.166,33.941,33.32
33.13,34.28,33.275999999999996,33.102,33.882,33.260999999999996
33.108000000000004,34.199,33.193000000000005,33.039,33.824,33.201
33.086,34.122,33.115,32.978,33.766,33.141
33.061,34.05,33.039,32.919000000000004,33.709,33.080999999999996
33.033,33.982,32.968,32.861999999999995,33.652,33.02
33.001999999999995,33.92,32.899,32.806999999999995,33.596,32.959
32.968,33.863,32.834,32.756,33.541,32.897
32.931,33.812,32.769,32.708,33.486999999999995,32.835
32.891,33.766999999999996,32.705,32.664,33.436,32.774
32.85,33.729,32.641,32.623000000000005,33.387,32.713
32.81,33.698,32.576,32.586,33.34,32.654
32.77,33.672,32.51,32.552,33.297,32.598
32.732,33.652,32.442,32.519,33.258,32.544000000000004
32.698,33.637,32.371,32.488,33.221,32.495
32.667,33.626999999999995,32.298,32.459,33.187,32.449
32.639,33.618,32.223,32.431,33.155,32.408
32.616,33.611,32.145,32.405,33.124,32.37
32.597,33.603,32.066,32.379,33.096,32.336999999999996
32.580999999999996,33.593,31.988000000000003,32.354,33.07,32.306
32.567,33.582,31.912,32.33,33.045,32.277
32.555,33.567,31.84,32.305,33.022,32.25
32.543,33.55,31.772,32.281,32.998000000000005,32.224000000000004
32.531,33.532,31.708000000000002,32.255,32.975,32.2
32.518,33.512,31.649,32.229,32.951,32.177
32.505,33.493,31.594,32.2,32.925,32.157
32.49,33.475,31.543000000000003,32.168,32.897,32.14
32.474000000000004,33.46,31.496,32.133,32.868,32.126
32.458,33.448,31.453000000000003,32.095,32.836999999999996,32.117
32.441,33.44,31.410999999999998,32.054,32.804,32.111
32.422,33.436,31.372,32.01,32.769,32.108000000000004
32.403,33.434,31.331999999999997,31.964000000000002,32.733000000000004,32.108000000000004
32.382,33.435,31.291,31.916,32.694,32.11
32.359,33.437,31.248,31.866,32.654,32.111999999999995
32.335,33.438,31.201999999999998,31.815,32.613,32.113
32.308,33.437,31.153000000000002,31.763,32.57,32.113
32.278,33.433,31.101,31.717,32.527,32.111
32.245,33.423,31.048000000000002,31.680999999999997,32.483000000000004,32.106
32.208,33.407,30.995,31.656,32.44,32.097
32.169000000000004,33.383,30.941999999999997,31.644000000000002,32.396,32.084
32.126,33.353,30.892,31.64,32.353,32.066
32.082,33.317,30.845,31.64,32.312,32.045
32.037,33.277,30.801,31.638,32.275,32.021
31.993000000000002,33.233000000000004,30.76,31.631,32.243,31.993000000000002
31.95,33.187,30.721999999999998,31.616999999999997,32.218,31.964000000000002
31.912,33.138000000000005,30.688000000000002,31.59,32.203,31.934
31.881,33.086999999999996,30.658,31.551,32.199,31.903000000000002
31.86,33.036,30.629,31.498,32.211,31.872
31.85,32.983000000000004,30.601,31.434,32.241,31.840999999999998
31.854,32.931,30.574,31.361,32.291,31.81
31.874000000000002,32.88,30.546999999999997,31.281,32.367,31.78
31.913,32.829,30.519000000000002,31.199,32.47,31.752
31.971999999999998,32.78,30.489,31.118000000000002,32.605,31.724
32.056,32.733000000000004,30.458000000000002,31.041,32.773,31.698
32.166,32.687,30.425,30.968000000000004,32.976,31.674
32.306,32.643,30.391,30.896,33.216,31.651
32.477,32.6,30.355,30.822,33.492,31.629
32.681999999999995,32.558,30.319000000000003,30.747,33.802,31.608
32.92,32.516999999999996,30.281999999999996,30.675,34.145,31.588
33.193000000000005,32.475,30.246,30.612,34.516,31.568
33.499,32.431999999999995,30.21,30.566999999999997,34.913000000000004,31.548000000000002
33.836999999999996,32.387,30.176,30.544,35.329,31.528000000000002
34.205,32.339,30.143,30.548000000000002,35.76,31.508000000000003
34.599000000000004,32.288000000000004,30.111,30.583000000000002,36.2,31.486
35.016999999999996,32.235,30.081999999999997,30.653000000000002,36.644,31.463
35.452,32.181,30.055999999999997,30.759,37.085,31.438000000000002
35.900999999999996,32.126999999999995,30.031,30.901999999999997,37.52,31.412
36.359,32.071999999999996,30.008000000000003,31.079,37.943000000000005,31.385
36.821,32.019,29.985,31.289,38.352,31.357
37.282,31.969,29.962,31.526999999999997,38.741,31.329
37.738,31.921,29.94,31.788,39.106,31.3
38.184,31.878,29.918000000000003,32.067,39.446,31.27
38.616,31.839000000000002,29.894000000000002,32.359,39.758,31.241
39.029,31.804000000000002,29.871,32.659,40.04,31.212
39.42,31.774,29.848000000000003,32.963,40.29,31.184
39.785,31.748,29.825,33.265,40.508,31.158
40.121,31.725,29.803,33.562,40.693000000000005,31.136999999999997
40.426,31.703000000000003,29.781,33.849000000000004,40.846,31.122
40.699,31.682,29.759,34.123000000000005,40.968999999999994,31.116999999999997
40.94,31.66,29.737,34.38,41.06399999999999,31.124000000000002
41.147,31.635,29.715,34.619,41.133,31.148000000000003
41.321999999999996,31.605999999999998,29.693,34.838,41.177,31.193
41.465,31.570999999999998,29.671999999999997,35.038000000000004,41.201,31.264
41.577,31.531999999999996,29.651,35.219,41.205,31.365
41.659,31.488000000000003,29.631,35.38,41.192,31.499000000000002
41.714,31.441,29.612,35.523,41.163999999999994,31.67
41.744,31.393,29.593000000000004,35.65,41.121,31.878
41.751000000000005,31.344,29.576,35.760999999999996,41.06399999999999,32.125
41.738,31.296999999999997,29.559,35.859,40.996,32.41
41.708999999999996,31.252,29.544,35.944,40.918,32.731
41.665,31.209,29.529,36.016999999999996,40.832,33.086999999999996
41.611000000000004,31.17,29.515,36.078,40.739000000000004,33.474000000000004
41.547,31.136,29.500999999999998,36.128,40.639,33.89
41.476000000000006,31.105999999999998,29.486,36.168,40.535,34.330999999999996
41.398999999999994,31.079,29.471,36.198,40.428000000000004,34.795
41.318000000000005,31.057,29.456,36.22,40.317,35.275999999999996
41.233999999999995,31.037,29.439,36.235,40.204,35.769
41.146,31.02,29.421999999999997,36.243,40.088,36.269
41.056999999999995,31.004,29.404,36.247,39.97,36.769
40.966,30.988000000000003,29.384,36.246,39.85,37.264
40.873000000000005,30.971999999999998,29.363000000000003,36.242,39.73,37.749
40.779,30.954,29.339000000000002,36.234,39.611,38.218
40.681,30.935,29.313000000000002,36.222,39.491,38.666
40.582,30.916,29.283,36.207,39.371,39.09
40.481,30.896,29.252,36.188,39.251999999999995,39.486
40.376999999999995,30.879,29.218000000000004,36.166,39.133,39.852
40.272,30.866,29.182,36.141999999999996,39.016,40.184
40.166,30.86,29.145,36.118,38.899,40.482
40.059,30.864,29.109,36.093,38.782,40.743
39.951,30.879,29.074,36.069,38.665,40.968999999999994
39.843,30.909000000000002,29.041,36.046,38.546,41.16
39.735,30.956999999999997,29.015,36.023,38.426,41.321000000000005
39.626,31.025,28.999000000000002,36.0,38.305,41.452
39.516,31.114,28.995,35.977,38.181999999999995,41.555
39.406,31.226,29.009,35.953,38.059,41.633
39.294000000000004,31.362,29.043000000000003,35.929,37.935,41.68600000000001
39.181999999999995,31.521,29.101999999999997,35.904,37.813,41.718
39.069,31.703000000000003,29.189,35.88,37.694,41.729
38.955999999999996,31.906,29.305999999999997,35.854,37.579,41.724
38.843,32.128,29.456,35.827,37.469,41.703
38.73,32.368,29.641,35.797,37.366,41.669
38.617,32.623000000000005,29.861,35.762,37.269,41.623999999999995
38.507,32.889,30.116,35.721,37.179,41.568999999999996
38.398,33.165,30.405,35.674,37.095,41.505
38.291,33.448,30.726,35.621,37.018,41.433
38.187,33.732,31.076999999999998,35.563,36.946999999999996,41.356
38.086999999999996,34.013000000000005,31.454,35.501,36.883,41.273
37.99,34.287,31.853,35.435,36.827,41.18600000000001
37.899,34.551,32.271,35.366,36.777,41.096000000000004
37.812,34.8,32.704,35.293,36.733000000000004,41.004
37.732,35.032,33.147,35.219,36.695,40.91
37.658,35.246,33.599000000000004,35.143,36.663000000000004,40.816
37.591,35.44,34.053000000000004,35.066,36.635,40.72
37.531,35.614000000000004,34.508,34.991,36.611,40.623000000000005
37.48,35.769,34.957,34.918,36.59,40.524
37.437,35.905,35.398,34.849000000000004,36.571,40.423
37.402,36.022,35.824,34.784,36.555,40.32
37.375,36.122,36.232,34.724000000000004,36.54,40.217
37.355,36.205999999999996,36.619,34.67,36.525,40.111999999999995
37.339,36.275,36.979,34.62,36.510999999999996,40.004
37.329,36.33,37.312,34.575,36.495,39.894
37.321,36.37,37.615,34.534,36.477,39.779
37.313,36.398,37.888000000000005,34.495,36.455,39.661
37.304,36.414,38.129,34.46,36.431,39.54
37.29,36.418,38.341,34.426,36.403,39.416
37.273,36.411,38.523,34.396,36.372,39.289
37.249,36.394,38.677,34.369,36.338,39.161
37.219,36.368,38.803000000000004,34.344,36.301,39.032
37.181,36.336,38.904,34.321999999999996,36.260999999999996,38.900999999999996
37.135999999999996,36.297,38.98,34.301,36.218,38.766999999999996
37.083,36.254,39.035,34.281,36.174,38.632
37.023,36.208,39.071,34.260999999999996,36.126999999999995,38.493
36.957,36.159,39.089,34.241,36.079,38.352
36.885,36.108000000000004,39.094,34.222,36.029,38.208
36.809,36.055,39.086999999999996,34.204,35.978,38.064
36.729,36.001,39.07,34.186,35.924,37.92
36.647,35.946999999999996,39.045,34.169000000000004,35.867,37.779
36.564,35.893,39.012,34.153,35.806999999999995,37.641999999999996
36.481,35.84,38.973,34.137,35.744,37.51
36.398,35.789,38.927,34.122,35.676,37.383
36.317,35.738,38.875,34.105,35.603,37.263000000000005
36.239000000000004,35.688,38.817,34.086999999999996,35.525999999999996,37.150999999999996
36.163000000000004,35.637,38.753,34.067,35.444,37.047
36.089,35.585,38.683,34.045,35.357,36.953
36.019,35.532,38.609,34.022,35.266999999999996,36.867
35.95,35.476,38.531,33.998000000000005,35.176,36.79
35.882,35.416,38.451,33.972,35.085,36.72
35.815,35.353,38.371,33.945,34.994,36.657
35.747,35.285,38.29,33.916,34.906,36.599000000000004
35.678000000000004,35.213,38.209,33.887,34.819,36.546
35.608000000000004,35.139,38.128,33.856,34.736,36.496
35.535,35.063,38.046,33.823,34.655,36.446999999999996
35.459,34.986999999999995,37.963,33.788000000000004,34.576,36.400999999999996
35.378,34.912,37.878,33.749,34.497,36.356
35.292,34.838,37.791,33.708,34.419000000000004,36.314
35.202,34.766,37.702,33.665,34.341,36.274
35.108000000000004,34.698,37.609,33.622,34.264,36.236999999999995
35.01,34.632,37.512,33.578,34.187,36.203
34.908,34.57,37.411,33.533,34.11,36.172
34.805,34.512,37.306,33.486999999999995,34.036,36.141999999999996
34.703,34.457,37.199,33.44,33.964,36.111999999999995
34.601,34.405,37.09,33.391999999999996,33.896,36.082
34.503,34.356,36.98,33.344,33.83,36.051
34.408,34.31,36.87,33.295,33.768,36.018
34.318000000000005,34.266999999999996,36.760999999999996,33.246,33.709,35.983000000000004
34.233000000000004,34.228,36.653,33.196999999999996,33.650999999999996,35.945
34.154,34.192,36.547,33.15,33.596,35.905
34.082,34.161,36.443000000000005,33.104,33.541,35.861
34.016,34.133,36.341,33.06,33.486999999999995,35.813
33.955999999999996,34.108000000000004,36.24,33.015,33.436,35.762
33.9,34.084,36.141,32.97,33.385,35.708
33.847,34.061,36.044000000000004,32.925,33.336,35.65
33.796,34.038000000000004,35.949,32.881,33.288000000000004,35.586999999999996
33.746,34.015,35.857,32.836,33.242,35.521
33.694,33.992,35.766999999999996,32.792,33.196,35.45
33.641,33.971,35.681999999999995,32.748000000000005,33.150999999999996,35.376999999999995
33.585,33.952,35.6,32.705,33.104,35.301
33.527,33.935,35.522,32.66,33.056999999999995,35.223
33.467,33.921,35.45,32.615,33.008,35.143
33.405,33.909,35.384,32.568000000000005,32.959,35.063
33.341,33.899,35.321999999999996,32.519,32.909,34.982
33.275999999999996,33.89,35.266999999999996,32.469,32.86,34.900999999999996
33.211,33.883,35.216,32.42,32.812,34.818000000000005
33.147,33.876,35.17,32.37,32.766,34.734
33.084,33.868,35.128,32.321999999999996,32.723,34.649
33.022,33.859,35.091,32.277,32.681999999999995,34.563
32.963,33.847,35.058,32.233000000000004,32.644,34.476
32.905,33.830999999999996,35.028,32.193000000000005,32.608000000000004,34.389
32.85,33.811,35.001999999999995,32.156,32.573,34.303000000000004
32.798,33.788000000000004,34.979,32.122,32.539,34.218
32.749,33.760999999999996,34.958,32.089,32.505,34.134
32.703,33.733000000000004,34.938,32.059,32.47,34.052
32.662,33.703,34.919000000000004,32.032,32.431999999999995,33.97
32.625,33.673,34.9,32.006,32.393,33.889
32.593,33.643,34.879,31.983,32.351,33.808
32.563,33.611999999999995,34.857,31.963,32.306999999999995,33.729
32.537,33.582,34.830999999999996,31.944000000000003,32.262,33.650999999999996
32.513000000000005,33.551,34.803000000000004,31.926,32.215,33.575
32.491,33.52,34.771,31.906999999999996,32.168,33.499
32.469,33.489000000000004,34.736999999999995,31.888,32.119,33.423
32.448,33.455999999999996,34.699,31.868000000000002,32.07,33.35
32.427,33.42,34.657,31.846999999999998,32.021,33.277
32.405,33.382,34.613,31.824,31.971,33.205999999999996
32.382,33.341,34.566,31.799,31.92,33.135999999999996
32.356,33.298,34.516999999999996,31.772,31.871,33.066
32.329,33.251,34.465,31.744,31.823,32.997
32.299,33.203,34.412,31.715,31.779,32.927
32.266999999999996,33.153,34.358000000000004,31.685,31.739,32.857
32.233000000000004,33.102,34.301,31.653000000000002,31.706999999999997,32.786
32.196999999999996,33.052,34.243,31.621,31.684,32.717
32.159,33.001999999999995,34.181999999999995,31.587,31.673000000000002,32.649
32.119,32.954,34.12,31.554000000000002,31.676,32.583
32.079,32.906,34.054,31.52,31.694000000000003,32.52
32.04,32.859,33.985,31.486,31.73,32.46
32.001,32.812,33.914,31.453000000000003,31.785999999999998,32.404
31.963,32.766,33.841,31.419,31.864,32.35
31.925,32.719,33.769,31.385,31.965999999999998,32.298
31.889,32.672,33.696999999999996,31.353,32.093,32.248000000000005
31.854,32.625,33.628,31.322,32.247,32.2
31.819000000000003,32.58,33.563,31.291999999999998,32.43,32.152
31.784000000000002,32.537,33.503,31.263,32.641999999999996,32.106
31.749000000000002,32.495,33.449,31.236,32.882,32.06
31.715,32.454,33.4,31.209,33.15,32.015
31.682,32.416,33.355,31.183000000000003,33.444,31.971
31.651,32.379,33.314,31.16,33.762,31.928
31.621,32.342,33.274,31.141,34.1,31.886
31.593000000000004,32.306,33.234,31.127,34.455999999999996,31.844
31.569000000000003,32.269,33.192,31.121,34.825,31.804000000000002
31.549,32.231,33.148,31.124000000000002,35.204,31.764
31.534000000000002,32.191,33.1,31.139,35.586999999999996,31.725
31.526999999999997,32.149,33.048,31.168000000000003,35.971,31.685
31.529,32.105,32.993,31.212,36.35,31.646
31.544,32.059,32.935,31.275,36.72,31.608
31.575,32.013000000000005,32.874,31.355999999999998,37.076,31.57
31.625999999999998,31.965,32.81,31.458000000000002,37.415,31.533
31.699,31.918000000000003,32.745,31.581,37.733000000000004,31.499000000000002
31.798000000000002,31.873,32.68,31.725,38.027,31.467
31.925,31.83,32.616,31.89,38.294000000000004,31.438000000000002
32.083,31.79,32.555,32.074,38.534,31.412
32.274,31.753,32.498000000000005,32.277,38.745,31.39
32.498000000000005,31.72,32.446,32.496,38.928000000000004,31.371
32.757,31.69,32.397,32.728,39.083,31.355999999999998
33.047,31.662,32.352,32.97,39.211,31.344
33.369,31.636,32.31,33.218,39.312,31.333000000000002
33.719,31.613000000000003,32.269,33.468,39.39,31.323
34.093,31.589000000000002,32.228,33.719,39.446,31.311999999999998
34.488,31.566,32.186,33.967,39.481,31.301
34.897,31.541,32.143,34.21,39.499,31.288
35.317,31.516,32.098,34.446,39.499,31.274
35.739000000000004,31.489,32.05,34.673,39.484,31.258000000000003
36.161,31.46,32.001,34.888000000000005,39.455,31.24
36.575,31.43,31.95,35.089,39.414,31.221999999999998
36.978,31.399,31.898000000000003,35.274,39.364000000000004,31.201999999999998
37.367,31.366999999999997,31.846999999999998,35.442,39.306999999999995,31.180999999999997
37.736,31.333000000000002,31.796999999999997,35.594,39.244,31.159000000000002
38.084,31.3,31.75,35.731,39.178000000000004,31.138
38.409,31.267,31.706999999999997,35.852,39.11,31.118000000000002
38.705999999999996,31.237,31.668000000000003,35.959,39.042,31.098000000000003
38.977,31.211,31.634,36.052,38.972,31.078000000000003
39.219,31.19,31.603,36.131,38.903,31.059
39.433,31.177,31.576,36.198,38.832,31.039
39.618,31.175,31.55,36.251999999999995,38.76,31.019000000000002
39.775999999999996,31.184,31.525,36.296,38.687,31.000999999999998
39.908,31.206999999999997,31.500999999999998,36.329,38.611,30.983
40.015,31.247,31.474,36.352,38.534,30.967
40.099000000000004,31.305999999999997,31.445,36.369,38.455,30.953000000000003
40.161,31.385,31.414,36.378,38.375,30.939
40.205,31.486,31.378,36.384,38.293,30.926
40.23,31.609,31.339000000000002,36.385,38.21,30.914
40.24,31.754,31.296,36.383,38.125,30.903000000000002
40.236999999999995,31.92,31.249000000000002,36.379,38.038000000000004,30.892
40.221,32.107,31.2,36.374,37.95,30.881999999999998
40.194,32.313,31.148000000000003,36.367,37.859,30.871
40.158,32.534,31.096999999999998,36.359,37.766999999999996,30.86
40.113,32.768,31.046999999999997,36.35,37.672,30.846
40.06,33.01,31.000999999999998,36.339,37.574,30.829
39.999,33.259,30.96,36.329,37.474000000000004,30.81
39.933,33.509,30.925,36.317,37.371,30.787
39.861,33.757,30.895,36.305,37.266,30.761
39.785,34.0,30.87,36.292,37.159,30.732
39.704,34.235,30.85,36.28,37.051,30.701999999999998
39.62,34.459,30.834,36.268,36.943000000000005,30.67
39.533,34.671,30.822,36.256,36.836,30.638
39.444,34.87,30.811,36.244,36.732,30.607
39.353,35.054,30.802,36.231,36.632,30.579
39.262,35.224000000000004,30.793000000000003,36.217,36.536,30.554000000000002
39.172,35.379,30.784000000000002,36.203,36.444,30.535999999999998
39.080999999999996,35.52,30.773000000000003,36.187,36.358000000000004,30.526
38.991,35.645,30.759,36.168,36.277,30.528000000000002
38.902,35.753,30.743000000000002,36.147,36.201,30.546
38.813,35.84,30.724,36.123000000000005,36.13,30.584
38.722,35.902,30.704,36.097,36.064,30.646
38.631,35.942,30.683000000000003,36.069,36.003,30.736
38.539,35.961,30.660999999999998,36.039,35.946999999999996,30.859
38.445,35.961999999999996,30.639,36.007,35.896,31.016
38.349000000000004,35.95,30.618000000000002,35.973,35.848,31.212
38.249,35.928000000000004,30.596999999999998,35.936,35.804,31.447
38.147,35.9,30.576,35.895,35.765,31.72
38.04,35.869,30.557,35.851,35.729,32.032
37.93,35.838,30.538,35.805,35.696999999999996,32.38
37.816,35.806999999999995,30.52,35.756,35.668,32.763000000000005
37.7,35.778,30.503,35.707,35.641999999999996,33.178000000000004
37.580999999999996,35.75,30.486,35.657,35.618,33.621
37.46,35.725,30.469,35.608000000000004,35.594,34.086999999999996
37.34,35.701,30.451,35.558,35.571999999999996,34.571
37.221,35.679,30.432,35.508,35.549,35.069
37.107,35.658,30.414,35.458,35.525,35.576
36.998000000000005,35.638000000000005,30.398000000000003,35.409,35.498000000000005,36.086
36.897,35.618,30.385,35.361999999999995,35.469,36.592
36.804,35.597,30.378,35.316,35.435,37.089
36.72,35.573,30.379,35.273,35.396,37.571
36.645,35.545,30.391,35.232,35.353,38.033
36.58,35.510999999999996,30.416999999999998,35.195,35.304,38.471
36.524,35.471,30.46,35.16,35.251999999999995,38.883
36.476,35.425,30.524,35.126999999999995,35.196999999999996,39.264
36.435,35.372,30.611,35.096,35.139,39.611999999999995
36.4,35.313,30.723000000000003,35.069,35.079,39.927
36.37,35.249,30.862,35.043,35.019,40.205999999999996
36.343,35.18,31.028000000000002,35.019,34.958,40.452
36.32,35.107,31.221999999999998,34.997,34.896,40.664
36.299,35.032,31.441999999999997,34.976,34.834,40.845
36.279,34.957,31.688000000000002,34.955999999999996,34.771,40.995
36.258,34.883,31.956,34.936,34.707,41.117
36.236999999999995,34.81,32.243,34.917,34.641,41.214
36.216,34.74,32.547,34.898,34.574,41.285
36.193000000000005,34.672,32.864000000000004,34.879,34.506,41.333
36.168,34.607,33.189,34.86,34.437,41.358999999999995
36.141,34.545,33.519,34.841,34.367,41.365
36.11,34.485,33.849000000000004,34.823,34.296,41.354
36.077,34.428000000000004,34.176,34.804,34.224000000000004,41.32899999999999
36.039,34.375,34.497,34.785,34.152,41.293
35.998000000000005,34.326,34.81,34.765,34.079,41.247
35.952,34.282,35.111999999999995,34.745,34.007,41.193000000000005
35.903,34.241,35.402,34.724000000000004,33.934,41.131
35.851,34.205999999999996,35.676,34.703,33.861999999999995,41.063
35.796,34.176,35.935,34.68,33.791,40.989
35.739000000000004,34.150999999999996,36.175,34.656,33.722,40.909
35.681,34.132,36.396,34.632,33.654,40.827
35.621,34.119,36.597,34.608000000000004,33.589,40.741
35.56,34.111999999999995,36.778,34.583,33.525,40.653
35.501,34.111,36.937,34.556999999999995,33.463,40.565
35.444,34.114000000000004,37.075,34.531,33.402,40.475
35.388000000000005,34.122,37.192,34.503,33.343,40.385
35.332,34.133,37.291,34.475,33.284,40.297
35.277,34.147,37.371,34.446,33.226,40.21
35.221,34.164,37.435,34.416,33.168,40.125
35.164,34.183,37.484,34.384,33.111999999999995,40.044000000000004
35.106,34.203,37.52,34.349000000000004,33.058,39.964
35.045,34.224000000000004,37.543,34.312,33.005,39.885999999999996
34.983000000000004,34.245,37.556,34.272,32.954,39.806999999999995
34.917,34.263000000000005,37.558,34.23,32.905,39.726
34.848,34.279,37.551,34.186,32.858000000000004,39.641999999999996
34.775,34.292,37.534,34.139,32.811,39.553000000000004
34.7,34.302,37.508,34.091,32.766,39.46
34.622,34.306,37.474000000000004,34.041,32.72,39.361999999999995
34.542,34.306,37.431,33.99,32.673,39.258
34.461,34.298,37.381,33.938,32.625,39.149
34.378,34.284,37.324,33.885999999999996,32.576,39.036
34.296,34.263000000000005,37.260999999999996,33.833,32.525,38.916
34.213,34.233000000000004,37.191,33.78,32.473,38.792
34.13,34.196999999999996,37.117,33.728,32.422,38.662
34.049,34.155,37.04,33.678000000000004,32.371,38.527
33.97,34.109,36.959,33.629,32.321,38.388000000000005
33.894,34.059,36.876999999999995,33.582,32.271,38.247
33.821999999999996,34.007,36.795,33.536,32.222,38.104
33.754,33.954,36.713,33.491,32.173,37.96
33.69,33.900999999999996,36.631,33.448,32.124,37.817
33.63,33.847,36.549,33.405,32.075,37.676
33.574,33.794000000000004,36.466,33.364000000000004,32.024,37.539
33.522,33.74,36.381,33.325,31.971999999999998,37.408
33.472,33.685,36.294000000000004,33.288000000000004,31.918000000000003,37.284
33.424,33.629,36.204,33.253,31.864,37.169000000000004
33.378,33.571,36.11,33.22,31.809,37.061
33.332,33.513000000000005,36.014,33.188,31.754,36.961999999999996
33.288000000000004,33.454,35.914,33.158,31.7,36.872
33.243,33.395,35.81,33.128,31.648000000000003,36.79
33.196999999999996,33.336,35.704,33.098,31.598000000000003,36.715
33.149,33.277,35.594,33.068000000000005,31.55,36.646
33.099000000000004,33.218,35.482,33.039,31.506,36.580999999999996
33.047,33.161,35.367,33.01,31.463,36.521
32.992,33.104,35.251,32.982,31.421999999999997,36.464
32.935,33.048,35.134,32.953,31.384,36.41
32.876,32.993,35.02,32.923,31.346,36.361
32.815,32.938,34.91,32.891999999999996,31.309,36.316
32.754,32.884,34.805,32.861,31.274,36.274
32.693000000000005,32.83,34.708,32.830999999999996,31.239,36.236999999999995
32.634,32.777,34.619,32.802,31.206,36.204
32.577,32.724000000000004,34.539,32.775,31.174,36.174
32.523,32.672,34.467,32.75,31.144000000000002,36.145
32.473,32.622,34.402,32.726,31.116,36.118
32.428000000000004,32.573,34.343,32.703,31.09,36.09
32.387,32.525,34.29,32.68,31.065,36.062
32.35,32.478,34.24,32.657,31.043000000000003,36.033
32.316,32.431999999999995,34.193000000000005,32.634,31.024,36.001999999999995
32.285,32.388000000000005,34.149,32.61,31.009,35.968
32.257,32.345,34.107,32.585,31.002,35.931999999999995
32.23,32.303000000000004,34.067,32.56,31.004,35.893
32.204,32.260999999999996,34.031,32.533,31.018,35.851
32.178000000000004,32.219,33.998000000000005,32.506,31.048000000000002,35.806999999999995
32.150999999999996,32.177,33.97,32.478,31.098000000000003,35.76
32.125,32.132,33.946999999999996,32.449,31.17,35.711
32.098,32.086,33.929,32.418,31.267,35.659
32.07,32.038000000000004,33.916,32.385,31.392,35.607
32.043,31.987,33.907,32.352,31.546,35.554
32.016,31.935,33.900999999999996,32.318000000000005,31.729,35.5
31.99,31.881999999999998,33.896,32.284,31.941,35.444
31.964000000000002,31.828000000000003,33.891,32.25,32.18,35.388000000000005
31.939,31.774,33.885,32.216,32.445,35.33
31.914,31.721,33.875,32.181999999999995,32.731,35.269
31.889,31.671,33.861,32.147,33.036,35.205999999999996
31.864,31.622,33.841,32.113,33.354,35.139
31.839000000000002,31.576,33.815,32.08,33.681999999999995,35.069
31.814,31.531999999999996,33.783,32.047,34.014,34.996
31.789,31.49,33.746,32.016,34.347,34.92
31.763,31.449,33.705,31.987,34.673,34.843
31.737,31.408,33.662,31.959,34.99,34.764
31.711,31.366999999999997,33.617,31.932,35.293,34.683
31.684,31.325,33.573,31.905,35.579,34.603
31.656999999999996,31.281,33.531,31.879,35.846,34.523
31.63,31.236,33.492,31.853,36.093,34.444
31.601,31.19,33.455,31.828000000000003,36.318000000000005,34.367
31.572,31.143,33.421,31.804000000000002,36.522,34.292
31.541,31.096999999999998,33.388000000000005,31.781,36.704,34.218
31.509,31.052,33.356,31.758000000000003,36.864000000000004,34.146
31.476,31.01,33.323,31.736,37.003,34.075
31.441999999999997,30.971,33.287,31.714000000000002,37.121,34.006
31.408,30.936999999999998,33.248000000000005,31.693,37.219,33.94
31.374000000000002,30.91,33.205,31.673000000000002,37.299,33.875
31.340999999999998,30.89,33.157,31.654,37.361999999999995,33.813
31.309,30.88,33.102,31.636999999999997,37.409,33.751
31.278000000000002,30.881999999999998,33.042,31.622,37.442,33.688
31.25,30.898000000000003,32.977,31.61,37.463,33.625
31.224,30.929000000000002,32.908,31.601,37.474000000000004,33.56
31.201999999999998,30.975,32.836999999999996,31.596,37.474000000000004,33.494
31.185,31.037,32.765,31.595,37.466,33.425
31.173000000000002,31.116,32.693000000000005,31.599,37.451,33.355
31.17,31.211,32.624,31.609,37.428000000000004,33.284
31.177,31.323,32.559,31.627,37.4,33.213
31.199,31.451999999999998,32.498000000000005,31.654,37.366,33.143
31.24,31.596,32.443000000000005,31.693,37.327,33.075
31.302,31.755,32.393,31.745,37.284,33.009
31.39,31.927,32.349000000000004,31.811,37.238,32.948
31.506,32.111999999999995,32.308,31.893,37.188,32.89
31.651999999999997,32.306,32.272,31.99,37.135999999999996,32.836
31.829,32.510999999999996,32.236999999999995,32.104,37.082,32.784
32.038000000000004,32.723,32.203,32.236,37.025999999999996,32.734
32.278,32.939,32.167,32.385999999999996,36.968,32.685
32.548,33.156,32.129,32.552,36.907,32.635999999999996
32.846,33.371,32.089,32.734,36.845,32.586
33.168,33.582,32.044000000000004,32.929,36.78,32.535
33.51,33.784,31.996,33.135999999999996,36.713,32.482
33.869,33.976,31.943,33.352,36.645,32.428000000000004
34.239000000000004,34.154,31.886999999999997,33.574,36.574,32.375
34.615,34.319,31.829,33.798,36.501,32.323
34.991,34.467,31.77,34.022,36.427,32.274
35.365,34.599000000000004,31.712,34.243,36.349000000000004,32.227
35.731,34.714,31.656999999999996,34.46,36.268,32.181
36.085,34.81,31.604,34.669000000000004,36.184,32.135999999999996
36.423,34.89,31.554000000000002,34.869,36.095,32.092
36.742,34.952,31.508000000000003,35.06,36.004,32.047
37.04,34.998000000000005,31.465,35.239000000000004,35.911,32.001999999999995
37.315,35.028,31.424,35.405,35.815,31.956999999999997
37.561,35.043,31.385,35.558,35.719,31.913
37.775999999999996,35.044000000000004,31.346,35.696,35.622,31.872
37.958,35.032,31.307,35.821,35.527,31.831999999999997
38.111,35.007,31.266,35.933,35.434,31.794
38.238,34.97,31.225,36.032,35.343,31.758000000000003
38.343,34.923,31.180999999999997,36.119,35.257,31.724
38.426,34.866,31.134,36.196,35.175,31.691999999999997
38.491,34.801,31.085,36.262,35.099000000000004,31.66
38.54,34.731,31.034000000000002,36.319,35.029,31.628
38.575,34.656,30.983,36.366,34.964,31.595
38.596,34.579,30.934,36.405,34.905,31.561
38.605,34.499,30.889,36.437,34.852,31.525
38.603,34.42,30.846999999999998,36.461999999999996,34.804,31.488000000000003
38.594,34.341,30.811,36.483000000000004,34.76,31.449
38.576,34.262,30.78,36.499,34.72,31.412
38.552,34.185,30.754,36.51,34.684,31.375999999999998
38.522,34.108000000000004,30.732,36.519,34.649,31.342
38.488,34.033,30.713,36.525,34.615,31.311999999999998
38.45,33.961,30.697,36.529,34.580999999999996,31.285
38.41,33.89,30.682,36.532,34.547,31.261
38.368,33.821999999999996,30.666,36.534,34.512,31.24
38.323,33.757,30.648000000000003,36.537,34.479,31.22
38.278,33.694,30.625999999999998,36.538000000000004,34.446999999999996,31.201999999999998
38.231,33.632,30.598000000000003,36.54,34.417,31.185
38.181999999999995,33.571999999999996,30.566,36.54,34.389,31.17
38.132,33.513000000000005,30.528000000000002,36.539,34.361999999999995,31.156
38.080999999999996,33.455,30.486,36.538000000000004,34.335,31.144000000000002
38.029,33.399,30.441,36.536,34.308,31.133000000000003
37.974000000000004,33.344,30.392,36.533,34.28,31.122
37.917,33.289,30.343000000000004,36.531,34.25,31.113000000000003
37.857,33.236,30.293000000000003,36.528,34.219,31.103
37.796,33.183,30.245,36.523,34.186,31.094
37.731,33.131,30.2,36.516,34.152,31.086
37.662,33.079,30.16,36.505,34.116,31.078000000000003
37.59,33.025,30.125999999999998,36.491,34.08,31.07
37.515,32.971,30.099,36.472,34.042,31.061
37.435,32.917,30.079,36.45,34.003,31.05
37.351,32.863,30.066,36.425,33.961999999999996,31.037
37.262,32.812,30.06,36.396,33.918,31.022
37.169000000000004,32.765,30.06,36.363,33.873000000000005,31.003
37.071,32.723,30.066999999999997,36.327,33.827,30.979
36.967,32.687,30.08,36.286,33.778,30.95
36.859,32.657,30.101,36.241,33.728,30.916999999999998
36.748000000000005,32.629,30.13,36.193000000000005,33.678000000000004,30.879
36.635999999999996,32.603,30.169,36.141999999999996,33.626,30.839000000000002
36.523,32.579,30.22,36.086999999999996,33.575,30.796999999999997
36.413000000000004,32.559,30.285,36.031,33.524,30.754
36.31,32.55,30.365,35.973,33.472,30.712
36.214,32.553000000000004,30.462,35.915,33.42,30.671
36.128,32.568000000000005,30.576999999999998,35.858000000000004,33.367,30.631999999999998
36.05,32.591,30.71,35.802,33.313,30.594
35.979,32.618,30.864,35.75,33.258,30.555999999999997
35.916,32.645,31.037,35.7,33.201,30.521
35.866,32.67,31.23,35.654,33.143,30.489
35.832,32.689,31.441999999999997,35.611,33.083,30.458000000000002
35.815,32.701,31.671,35.571,33.024,30.428
35.812,32.704,31.915,35.534,32.964,30.401
35.821,32.699,32.17,35.501999999999995,32.904,30.378
35.838,32.687,32.434,35.474000000000004,32.846,30.358
35.859,32.667,32.702,35.451,32.789,30.342
35.88,32.641,32.971,35.433,32.733000000000004,30.333000000000002
35.898,32.611,33.236999999999995,35.42,32.679,30.331
35.91,32.578,33.496,35.41,32.624,30.34
35.913000000000004,32.543,33.745,35.404,32.57,30.36
35.906,32.505,33.98,35.402,32.516,30.389
35.889,32.466,34.2,35.400999999999996,32.461999999999996,30.424
35.863,32.425,34.400999999999996,35.402,32.409,30.467
35.826,32.385,34.584,35.404,32.357,30.522
35.78,32.344,34.749,35.405,32.306999999999995,30.595
35.726,32.303000000000004,34.895,35.404,32.258,30.691999999999997
35.666,32.262,35.025,35.400999999999996,32.211999999999996,30.818
35.601,32.223,35.14,35.395,32.167,30.976999999999997
35.532,32.186,35.239000000000004,35.385,32.125,31.174
35.459,32.153,35.326,35.372,32.083,31.410999999999998
35.385,32.123000000000005,35.400999999999996,35.356,32.043,31.688000000000002
35.309,32.097,35.465,35.339,32.001,32.006
35.234,32.076,35.518,35.321,31.96,32.361999999999995
35.162,32.059,35.56,35.302,31.918000000000003,32.754
35.092,32.045,35.592,35.282,31.875,33.178000000000004
35.025,32.033,35.613,35.259,31.831999999999997,33.628
34.961999999999996,32.023,35.624,35.233000000000004,31.788,34.099000000000004
34.900999999999996,32.014,35.624,35.205,31.745,34.584
34.844,32.005,35.614000000000004,35.173,31.703000000000003,35.077
34.789,31.995,35.596,35.139,31.662,35.57
34.735,31.983,35.569,35.102,31.623,36.056999999999995
34.683,31.971,35.536,35.065,31.586,36.532
34.632,31.956,35.496,35.027,31.552,36.99
34.58,31.94,35.452,34.988,31.52,37.427
34.525999999999996,31.921,35.403,34.948,31.49,37.838
34.469,31.901,35.351,34.907,31.462,38.222
34.411,31.881,35.296,34.866,31.436,38.576
34.351,31.859,35.239000000000004,34.825,31.410999999999998,38.899
34.288000000000004,31.837,35.178000000000004,34.785,31.389,39.19
34.223,31.814,35.114000000000004,34.745,31.368000000000002,39.449
34.157,31.791,35.048,34.705,31.348000000000003,39.674
34.089,31.768,34.979,34.667,31.328000000000003,39.868
34.021,31.745,34.908,34.629,31.308000000000003,40.03
33.954,31.721,34.836,34.59,31.287,40.164
33.887,31.695999999999998,34.762,34.552,31.265,40.27
33.821,31.671,34.688,34.512,31.241999999999997,40.351
33.756,31.646,34.613,34.473,31.215999999999998,40.408
33.691,31.621,34.539,34.435,31.186999999999998,40.444
33.626999999999995,31.598000000000003,34.465,34.397,31.155,40.46
33.563,31.576999999999998,34.389,34.36,31.12,40.461
33.499,31.559,34.313,34.325,31.083000000000002,40.449
33.436,31.543000000000003,34.236,34.292,31.044,40.424
33.374,31.528000000000002,34.158,34.260999999999996,31.004,40.39
33.312,31.516,34.08,34.23,30.965,40.345
33.253,31.505,34.001999999999995,34.2,30.928,40.292
33.198,31.495,33.925,34.171,30.895,40.232
33.146,31.484,33.848,34.143,30.87,40.164
33.097,31.471999999999998,33.774,34.116,30.858,40.092
33.051,31.456999999999997,33.702,34.09,30.864,40.015
33.008,31.439,33.633,34.065,30.886,39.937
32.966,31.419,33.567,34.04,30.926,39.858000000000004
32.926,31.395,33.503,34.016999999999996,30.980999999999998,39.781
32.887,31.37,33.444,33.995,31.051,39.705999999999996
32.848,31.343000000000004,33.39,33.973,31.136,39.634
32.811,31.315,33.34,33.95,31.237,39.564
32.773,31.287,33.295,33.925,31.355999999999998,39.494
32.735,31.261,33.254,33.898,31.497,39.423
32.696,31.236,33.217,33.868,31.662,39.352
32.654,31.215,33.184,33.835,31.849,39.279
32.61,31.197,33.155,33.801,32.056,39.205
32.562,31.182,33.128,33.765,32.28,39.13
32.509,31.171,33.104,33.727,32.518,39.053000000000004
32.453,31.163,33.084,33.687,32.763000000000005,38.976
32.391999999999996,31.158,33.067,33.645,33.013000000000005,38.896
32.329,31.156,33.054,33.602,33.263000000000005,38.814
32.264,31.156,33.044000000000004,33.558,33.51,38.73
32.199,31.158,33.036,33.514,33.751999999999995,38.641
32.137,31.160999999999998,33.029,33.47,33.986999999999995,38.548
32.079,31.165,33.024,33.427,34.214,38.45
32.027,31.171999999999997,33.018,33.385,34.433,38.348
31.979,31.182,33.01,33.344,34.641,38.241
31.936,31.198,33.001,33.306,34.836999999999996,38.13
31.899,31.221999999999998,32.99,33.275999999999996,35.022,38.014
31.866,31.256,32.977,33.256,35.194,37.893
31.837,31.302,32.961999999999996,33.244,35.352,37.766999999999996
31.811,31.363000000000003,32.946,33.239000000000004,35.497,37.639
31.787,31.44,32.928000000000004,33.238,35.628,37.509
31.764,31.534000000000002,32.911,33.236999999999995,35.754,37.379
31.74,31.646,32.893,33.229,35.874,37.251
31.717,31.776,32.876999999999995,33.209,35.988,37.126
31.691,31.921,32.861,33.176,36.095,37.008
31.662,32.079,32.846,33.131,36.195,36.896
31.631,32.248000000000005,32.832,33.076,36.289,36.793
31.596,32.423,32.819,33.016,36.376999999999995,36.696999999999996
31.559,32.601,32.806999999999995,32.953,36.455999999999996,36.607
31.52,32.779,32.794000000000004,32.89,36.522,36.522
31.48,32.953,32.778,32.83,36.571999999999996,36.442
31.44,33.12,32.759,32.775999999999996,36.602,36.367
31.401,33.28,32.736,32.731,36.613,36.298
31.363000000000003,33.429,32.705999999999996,32.694,36.602,36.235
31.326999999999998,33.567,32.672,32.665,36.57,36.176
31.294,33.694,32.633,32.645,36.516,36.122
31.264,33.806999999999995,32.589,32.633,36.445,36.074
31.236,33.908,32.543,32.629,36.359,36.03
31.21,33.994,32.496,32.631,36.263000000000005,35.99
31.186,34.065,32.448,32.639,36.16,35.954
31.163,34.121,32.402,32.65,36.055,35.919000000000004
31.141,34.163000000000004,32.357,32.663000000000004,35.952,35.885999999999996
31.119,34.191,32.314,32.675,35.854,35.853
31.098000000000003,34.207,32.274,32.685,35.764,35.819
31.076999999999998,34.213,32.236,32.692,35.683,35.783
31.055999999999997,34.209,32.201,32.695,35.611999999999995,35.744
31.035999999999998,34.198,32.167,32.694,35.549,35.703
31.016,34.18,32.134,32.69,35.493,35.658
30.996,34.157,32.1,32.681999999999995,35.444,35.611
30.976,34.13,32.065,32.669000000000004,35.399,35.56
30.954,34.101,32.028,32.653,35.357,35.508
30.93,34.069,31.988000000000003,32.632,35.313,35.454
30.904,34.037,31.947,32.609,35.266,35.399
30.875,34.003,31.903000000000002,32.583,35.215,35.344
30.844,33.967,31.857,32.555,35.159,35.288000000000004
30.809,33.929,31.81,32.525999999999996,35.096,35.231
30.774,33.888000000000005,31.761,32.497,35.027,35.174
30.737,33.845,31.712,32.467,34.953,35.117
30.701,33.8,31.664,32.438,34.878,35.058
30.668000000000003,33.753,31.618000000000002,32.41,34.801,34.997
30.638,33.705,31.576,32.383,34.725,34.934
30.615,33.657,31.538,32.356,34.65,34.866
30.601,33.61,31.503,32.33,34.578,34.795
30.6,33.564,31.47,32.304,34.509,34.72
30.615,33.52,31.44,32.28,34.444,34.641999999999996
30.65,33.478,31.41,32.256,34.383,34.562
30.706999999999997,33.438,31.38,32.233000000000004,34.327,34.479
30.789,33.4,31.349,32.21,34.275999999999996,34.396
30.9,33.364000000000004,31.315,32.188,34.23,34.311
31.039,33.327,31.279,32.167,34.19,34.227
31.206999999999997,33.29,31.238000000000003,32.146,34.156,34.143
31.404,33.25,31.193,32.126,34.126999999999995,34.061
31.628,33.21,31.145,32.105,34.105,33.982
31.875999999999998,33.169000000000004,31.094,32.085,34.088,33.907
32.145,33.129,31.041,32.066,34.075,33.834
32.431999999999995,33.091,30.988000000000003,32.049,34.066,33.766
32.732,33.054,30.935,32.036,34.06,33.699
33.043,33.021,30.883000000000003,32.029,34.055,33.634
33.359,32.992,30.834,32.028,34.051,33.569
33.676,32.966,30.789,32.036,34.046,33.505
33.991,32.944,30.747,32.055,34.042,33.439
34.301,32.925,30.711,32.086,34.037,33.371
34.603,32.908,30.678,32.13,34.032,33.3
34.894,32.895,30.65,32.19,34.027,33.225
35.172,32.884,30.625999999999998,32.265,34.019,33.147
35.436,32.875,30.605,32.357,34.01,33.068000000000005
35.684,32.868,30.586,32.465,33.996,32.988
35.914,32.864000000000004,30.568,32.591,33.979,32.91
36.126999999999995,32.863,30.55,32.734,33.957,32.833
36.321,32.866,30.531,32.894,33.929,32.76
36.495,32.873000000000005,30.51,33.07,33.898,32.691
36.650999999999996,32.884,30.487,33.260999999999996,33.863,32.626
36.787,32.9,30.461,33.466,33.826,32.565
36.905,32.92,30.434,33.681,33.789,32.508
37.003,32.944,30.405,33.905,33.751999999999995,32.452
37.085,32.972,30.375999999999998,34.132,33.717,32.399
37.150999999999996,33.001999999999995,30.346999999999998,34.363,33.683,32.348
37.202,33.031,30.316999999999997,34.592,33.650999999999996,32.297
37.24,33.061,30.289,34.818000000000005,33.618,32.247
37.266,33.088,30.263,35.038000000000004,33.584,32.196999999999996
37.279,33.113,30.238000000000003,35.249,33.55,32.148
37.282,33.135,30.215999999999998,35.451,33.514,32.098
37.275999999999996,33.153,30.199,35.641,33.476,32.047
37.262,33.168,30.186,35.818000000000005,33.438,31.994
37.24,33.179,30.179000000000002,35.981,33.4,31.938000000000002
37.211999999999996,33.188,30.178,36.129,33.363,31.881
37.179,33.195,30.185,36.260999999999996,33.324,31.822
37.141,33.2,30.2,36.376999999999995,33.285,31.761999999999997
37.101,33.205,30.226,36.478,33.244,31.701
37.059,33.209,30.261999999999997,36.565,33.202,31.639
37.016,33.211999999999996,30.31,36.638000000000005,33.159,31.579
36.973,33.211999999999996,30.372,36.698,33.115,31.521
36.931,33.209,30.447,36.746,33.07,31.467
36.89,33.204,30.535999999999998,36.784,33.025999999999996,31.416999999999998
36.849000000000004,33.196999999999996,30.641,36.813,32.981,31.372
36.809,33.189,30.761999999999997,36.834,32.937,31.331999999999997
36.769,33.179,30.898000000000003,36.848,32.894,31.296
36.73,33.167,31.05,36.856,32.853,31.263
36.69,33.154,31.215999999999998,36.86,32.812,31.232
36.648,33.14,31.394000000000002,36.859,32.772,31.203000000000003
36.605,33.125,31.584,36.855,32.732,31.175
36.558,33.109,31.781999999999996,36.85,32.692,31.148000000000003
36.509,33.093,31.986,36.846,32.649,31.121
36.455999999999996,33.076,32.194,36.843,32.604,31.093000000000004
36.400999999999996,33.058,32.400999999999996,36.841,32.556999999999995,31.065
36.342,33.041,32.605,36.843,32.509,31.035
36.279,33.022,32.804,36.846,32.46,31.002
36.214,33.001999999999995,32.995,36.851,32.411,30.967
36.146,32.981,33.177,36.858000000000004,32.363,30.93
36.076,32.957,33.346,36.864000000000004,32.317,30.891
36.003,32.933,33.501999999999995,36.87,32.273,30.85
35.929,32.907,33.644,36.876,32.233000000000004,30.809
35.854,32.883,33.772,36.881,32.195,30.767
35.779,32.859,33.884,36.885,32.162,30.725
35.705,32.838,33.982,36.887,32.132,30.683000000000003
35.632,32.82,34.066,36.888000000000005,32.105,30.641
35.561,32.805,34.137,36.887,32.08,30.6
35.493,32.795,34.196999999999996,36.885,32.058,30.559
35.43,32.788000000000004,34.246,36.882,32.037,30.52
35.372,32.784,34.285,36.875,32.016999999999996,30.483
35.319,32.784,34.314,36.866,31.998,30.448
35.271,32.785,34.333,36.852,31.980999999999998,30.416999999999998
35.23,32.786,34.343,36.833,31.964000000000002,30.389
35.195,32.786,34.344,36.809,31.947,30.364
35.164,32.784,34.336,36.78,31.929000000000002,30.343000000000004
35.137,32.778,34.319,36.746,31.91,30.323
35.114000000000004,32.77,34.296,36.709,31.888,30.303
35.092,32.759,34.266999999999996,36.668,31.865,30.281999999999996
35.073,32.747,34.233000000000004,36.625,31.838,30.259
35.054,32.734,34.196,36.58,31.808000000000003,30.234
35.035,32.721,34.158,36.531,31.776,30.205
35.016,32.709,34.118,36.481,31.741999999999997,30.174
34.996,32.696999999999996,34.079,36.431,31.709,30.14
34.973,32.684,34.041,36.381,31.675,30.104
34.946999999999996,32.665,34.005,36.333,31.643,30.066999999999997
34.919000000000004,32.641,33.969,36.288000000000004,31.614,30.029
34.889,32.611,33.934,36.246,31.589000000000002,29.991
34.856,32.578,33.899,36.208,31.566999999999997,29.954
34.821999999999996,32.543,33.863,36.174,31.548000000000002,29.919
34.787,32.508,33.823,36.141999999999996,31.534000000000002,29.886999999999997
34.751,32.476,33.78,36.115,31.523000000000003,29.855999999999998
34.716,32.446999999999996,33.732,36.091,31.514,29.826999999999998
34.681,32.422,33.679,36.071,31.506999999999998,29.8
34.648,32.402,33.622,36.054,31.500999999999998,29.773000000000003
34.616,32.385999999999996,33.561,36.039,31.497,29.746
34.584,32.375,33.498000000000005,36.025999999999996,31.491999999999997,29.72
34.553000000000004,32.367,33.434,36.015,31.488000000000003,29.694000000000003
34.522,32.363,33.37,36.006,31.483,29.669
34.49,32.361999999999995,33.308,36.0,31.48,29.646
34.455999999999996,32.364000000000004,33.248000000000005,35.996,31.476999999999997,29.623
34.419000000000004,32.369,33.191,35.993,31.476,29.601
34.381,32.376999999999995,33.138000000000005,35.99,31.478,29.581
34.339,32.389,33.086999999999996,35.986999999999995,31.484,29.561
34.294000000000004,32.406,33.039,35.983000000000004,31.497,29.543000000000003
34.245,32.428000000000004,32.992,35.979,31.519000000000002,29.525
34.193000000000005,32.455,32.948,35.976,31.553,29.508000000000003
34.14,32.488,32.903,35.974000000000004,31.601,29.49
34.086,32.529,32.859,35.972,31.666,29.471
34.031,32.579,32.815,35.971,31.748,29.45
33.974000000000004,32.64,32.769,35.968,31.851,29.427
33.917,32.714,32.722,35.964,31.973000000000003,29.401
33.86,32.8,32.675,35.959,32.115,29.373
33.801,32.899,32.629,35.951,32.275,29.342
33.742,33.013000000000005,32.584,35.942,32.454,29.31
33.681999999999995,33.139,32.543,35.931,32.647,29.276999999999997
33.622,33.275999999999996,32.507,35.918,32.852,29.245
33.561,33.422,32.478,35.902,33.065,29.215
33.5,33.576,32.455,35.883,33.284,29.188000000000002
33.44,33.734,32.441,35.861,33.506,29.168000000000003
33.381,33.893,32.433,35.835,33.727,29.154
33.324,34.049,32.431,35.804,33.946,29.151
33.268,34.2,32.434,35.771,34.158,29.159000000000002
33.214,34.344,32.442,35.734,34.361999999999995,29.180999999999997
33.161,34.481,32.453,35.695,34.556999999999995,29.219
33.11,34.608000000000004,32.465,35.654,34.739000000000004,29.276999999999997
33.06,34.725,32.477,35.611999999999995,34.909,29.357
33.010999999999996,34.830999999999996,32.488,35.57,35.065,29.461
32.963,34.926,32.497,35.529,35.208,29.592
32.915,35.009,32.501999999999995,35.49,35.338,29.752
32.868,35.078,32.505,35.452,35.454,29.943
32.821999999999996,35.135,32.505,35.416,35.556999999999995,30.164
32.775999999999996,35.177,32.505,35.379,35.647,30.416
32.73,35.207,32.504,35.343,35.723,30.698
32.684,35.223,32.504,35.306,35.787,31.008000000000003
32.639,35.227,32.504,35.269,35.838,31.342
32.594,35.22,32.504,35.232,35.875,31.698
32.549,35.201,32.505,35.195,35.900999999999996,32.07
32.503,35.174,32.505,35.159,35.915,32.454
32.457,35.139,32.505,35.124,35.92,32.843
32.411,35.099000000000004,32.503,35.09,35.918,33.234
32.365,35.055,32.499,35.056999999999995,35.909,33.621
32.319,35.01,32.492,35.025,35.895,34.0
32.274,34.965,32.482,34.994,35.878,34.369
32.229,34.919000000000004,32.469,34.964,35.858000000000004,34.725
32.185,34.874,32.451,34.935,35.838,35.066
32.141999999999996,34.83,32.43,34.907,35.816,35.389
32.1,34.786,32.406,34.88,35.794000000000004,35.693000000000005
32.058,34.743,32.376999999999995,34.853,35.773,35.978
32.018,34.699,32.346,34.826,35.753,36.242
31.98,34.657,32.313,34.799,35.734,36.484
31.944000000000003,34.615,32.279,34.773,35.716,36.704
31.910999999999998,34.574,32.245,34.749,35.699,36.900999999999996
31.881,34.535,32.21,34.725,35.681999999999995,37.075
31.854,34.497,32.176,34.703,35.666,37.227
31.829,34.459,32.143,34.681999999999995,35.650999999999996,37.357
31.807,34.422,32.111,34.66,35.635999999999996,37.466
31.785999999999998,34.385,32.08,34.638000000000005,35.621,37.554
31.767,34.348,32.051,34.615,35.605,37.623000000000005
31.748,34.309,32.022,34.59,35.59,37.674
31.73,34.27,31.994,34.563,35.574,37.71
31.709,34.228,31.965999999999998,34.533,35.556,37.733000000000004
31.686,34.185,31.936999999999998,34.501999999999995,35.535,37.745
31.660999999999998,34.141,31.906999999999996,34.468,35.510999999999996,37.747
31.631999999999998,34.096,31.875,34.434,35.483000000000004,37.741
31.6,34.051,31.840999999999998,34.4,35.45,37.729
31.565,34.008,31.805,34.364000000000004,35.412,37.71
31.53,33.967,31.766,34.329,35.369,37.686
31.494,33.929,31.726,34.293,35.321999999999996,37.656
31.458000000000002,33.894,31.685,34.256,35.272,37.621
31.424,33.863,31.645,34.219,35.22,37.582
31.393,33.835,31.605999999999998,34.183,35.168,37.54
31.365,33.809,31.569000000000003,34.148,35.114000000000004,37.495
31.342,33.786,31.535,34.114000000000004,35.062,37.448
31.323,33.765,31.504,34.080999999999996,35.010999999999996,37.399
31.308000000000003,33.745,31.475,34.048,34.964,37.35
31.296,33.727,31.445999999999998,34.016,34.92,37.301
31.288,33.71,31.418000000000003,33.984,34.879,37.251
31.281,33.695,31.39,33.953,34.843,37.203
31.275,33.681,31.361,33.924,34.811,37.154
31.267,33.67,31.331,33.897,34.782,37.105
31.258000000000003,33.661,31.3,33.871,34.757,37.056
31.246,33.655,31.269000000000002,33.847,34.735,37.006
31.230999999999998,33.653,31.238000000000003,33.823,34.715,36.954
31.214000000000002,33.654,31.206999999999997,33.801,34.698,36.9
31.197,33.659,31.177,33.779,34.683,36.842
31.178,33.666,31.146,33.759,34.671,36.779
31.159000000000002,33.677,31.116,33.739000000000004,34.661,36.711
31.14,33.688,31.088,33.721,34.655,36.639
31.12,33.701,31.06,33.704,34.65,36.563
31.098000000000003,33.711999999999996,31.035,33.688,34.648,36.483000000000004
31.076,33.723,31.011999999999997,33.674,34.647,36.4
31.053,33.734,30.991,33.66,34.646,36.313
31.026999999999997,33.743,30.971999999999998,33.648,34.644,36.223
31.0,33.751999999999995,30.954,33.635999999999996,34.64,36.132
30.97,33.76,30.936999999999998,33.624,34.633,36.038000000000004
30.939,33.769,30.92,33.611,34.623000000000005,35.943000000000005
30.906999999999996,33.777,30.903000000000002,33.596,34.61,35.847
30.875,33.784,30.885,33.580999999999996,34.594,35.75
30.844,33.79,30.866999999999997,33.565,34.576,35.654
30.816999999999997,33.795,30.848000000000003,33.549,34.556,35.559
30.791999999999998,33.797,30.829,33.533,34.532,35.467
30.773000000000003,33.796,30.81,33.516999999999996,34.507,35.379
30.758000000000003,33.792,30.79,33.501999999999995,34.478,35.296
30.747,33.783,30.771,33.486,34.446,35.22
30.741,33.771,30.752,33.471,34.412,35.150999999999996
30.739,33.755,30.734,33.455999999999996,34.374,35.091
30.74,33.736,30.717,33.442,34.334,35.039
30.741999999999997,33.715,30.701999999999998,33.427,34.293,34.994
30.745,33.694,30.688000000000002,33.413000000000004,34.251999999999995,34.957
30.745,33.672,30.676,33.397,34.209,34.927
30.741,33.650999999999996,30.665,33.38,34.166,34.903
30.732,33.631,30.656,33.36,34.122,34.883
30.715999999999998,33.611999999999995,30.649,33.339,34.077,34.866
30.695,33.595,30.645,33.317,34.032,34.851
30.668000000000003,33.579,30.644000000000002,33.296,33.986,34.835
30.638,33.565,30.648000000000003,33.278,33.938,34.819
30.605,33.552,30.658,33.264,33.889,34.802
30.570999999999998,33.54,30.676,33.256,33.84,34.784
30.535999999999998,33.527,30.701999999999998,33.255,33.79,34.765
30.502,33.512,30.739,33.264,33.74,34.745
30.469,33.496,30.789,33.286,33.691,34.726
30.439,33.479,30.851,33.32,33.645,34.708
30.414,33.46,30.928,33.37,33.602,34.691
30.396,33.44,31.021,33.436,33.562,34.676
30.386,33.42,31.128,33.518,33.525999999999996,34.661
30.386999999999997,33.4,31.250999999999998,33.617,33.493,34.647
30.401999999999997,33.381,31.388,33.734,33.463,34.632
30.432,33.361999999999995,31.537,33.867,33.435,34.615
30.48,33.345,31.697,34.016,33.408,34.596
30.549,33.329,31.863000000000003,34.18,33.381,34.574
30.641,33.314,32.034,34.356,33.353,34.548
30.756999999999998,33.299,32.207,34.544000000000004,33.324,34.519
30.9,33.285,32.38,34.742,33.294000000000004,34.486999999999995
31.069000000000003,33.271,32.552,34.946999999999996,33.262,34.452
31.263,33.256,32.719,35.158,33.228,34.414
31.482,33.239000000000004,32.882,35.373000000000005,33.193000000000005,34.374
31.723000000000003,33.221,33.037,35.59,33.156,34.330999999999996
31.985,33.202,33.185,35.806,33.118,34.286
32.263000000000005,33.183,33.321999999999996,36.02,33.078,34.239000000000004
32.556,33.164,33.45,36.229,33.037,34.189
32.858000000000004,33.146,33.565,36.431999999999995,32.996,34.137
33.167,33.128,33.667,36.626999999999995,32.955999999999996,34.085
33.478,33.11,33.755,36.81,32.917,34.032
33.788000000000004,33.093,33.83,36.982,32.88,33.98
34.092,33.076,33.891999999999996,37.14,32.847,33.93
34.385999999999996,33.059,33.941,37.286,32.817,33.881
34.666,33.042,33.979,37.418,32.793,33.833
34.931,33.025,34.006,37.536,32.772,33.787
35.179,33.007,34.025,37.641999999999996,32.755,33.742
35.408,32.99,34.037,37.735,32.742,33.695
35.619,32.974000000000004,34.043,37.817,32.732,33.646
35.811,32.959,34.044000000000004,37.888000000000005,32.724000000000004,33.593
35.985,32.946999999999996,34.041,37.948,32.716,33.537
36.141999999999996,32.938,34.035,37.999,32.708,33.477
36.281,32.93,34.025999999999996,38.041,32.696999999999996,33.415
36.405,32.925,34.013000000000005,38.076,32.685,33.352
36.513000000000005,32.922,33.997,38.105,32.669000000000004,33.29
36.607,32.918,33.976,38.128,32.65,33.229
36.688,32.914,33.95,38.146,32.629,33.17
36.758,32.909,33.92,38.16,32.604,33.114000000000004
36.82,32.902,33.885999999999996,38.171,32.575,33.061
36.875,32.893,33.85,38.179,32.544000000000004,33.01
36.925,32.88,33.812,38.184,32.509,32.961999999999996
36.97,32.866,33.773,38.186,32.473,32.915
37.010999999999996,32.852,33.735,38.185,32.437,32.868
37.047,32.838,33.698,38.183,32.400999999999996,32.821
37.078,32.826,33.663000000000004,38.179,32.367,32.773
37.105,32.819,33.631,38.175,32.335,32.723
37.126,32.82,33.602,38.172,32.306,32.673
37.141999999999996,32.829,33.574,38.167,32.28,32.621
37.154,32.85,33.547,38.163000000000004,32.257,32.567
37.161,32.884,33.519,38.157,32.236,32.510999999999996
37.164,32.931999999999995,33.49,38.150999999999996,32.216,32.455
37.162,32.996,33.458,38.141999999999996,32.196999999999996,32.398
37.158,33.077,33.423,38.132,32.178000000000004,32.341
37.150999999999996,33.175,33.385,38.12,32.156,32.285
37.143,33.289,33.343,38.106,32.134,32.231
37.134,33.416,33.296,38.091,32.109,32.179
37.124,33.554,33.246,38.074,32.083,32.131
37.116,33.7,33.194,38.056,32.054,32.086999999999996
37.107,33.853,33.141,38.038000000000004,32.024,32.046
37.099000000000004,34.009,33.088,38.016999999999996,31.994,32.009
37.089,34.168,33.037,37.996,31.963,31.975
37.078,34.327,32.988,37.974000000000004,31.933000000000003,31.943
37.064,34.483000000000004,32.942,37.949,31.904,31.912
37.046,34.635999999999996,32.900999999999996,37.921,31.877,31.88
37.025999999999996,34.783,32.863,37.891,31.853,31.846
37.001,34.922,32.830999999999996,37.857,31.834,31.809
36.971,35.052,32.803000000000004,37.82,31.82,31.771
36.937,35.172,32.779,37.781,31.814,31.730999999999998
36.899,35.281,32.76,37.739000000000004,31.816,31.691
36.856,35.378,32.745,37.695,31.826999999999998,31.65
36.809,35.464,32.733000000000004,37.650999999999996,31.85,31.61
36.758,35.538000000000004,32.724000000000004,37.605,31.885,31.57
36.702,35.6,32.718,37.559,31.933000000000003,31.531
36.641999999999996,35.652,32.714,37.512,31.994,31.491999999999997
36.579,35.694,32.713,37.465,32.07,31.454
36.514,35.727,32.714,37.42,32.16,31.416
36.448,35.75,32.718,37.378,32.263000000000005,31.38
36.382,35.765,32.723,37.338,32.38,31.346
36.319,35.769,32.729,37.302,32.51,31.314
36.258,35.763000000000005,32.738,37.27,32.653,31.284000000000002
36.201,35.746,32.746,37.24,32.808,31.258000000000003
36.147,35.72,32.755,37.214,32.972,31.235
36.099000000000004,35.686,32.763000000000005,37.19,33.146,31.215
36.056,35.645,32.77,37.168,33.326,31.199
36.016999999999996,35.6,32.775999999999996,37.148,33.512,31.186
35.983000000000004,35.552,32.782,37.129,33.702,31.175
35.952,35.503,32.786,37.111999999999995,33.893,31.166
35.925,35.455,32.789,37.095,34.083,31.158
35.900999999999996,35.408,32.791,37.079,34.27,31.149
35.88,35.361999999999995,32.791,37.064,34.452,31.138
35.86,35.318000000000005,32.789,37.05,34.625,31.124000000000002
35.841,35.275,32.785,37.036,34.788000000000004,31.105999999999998
35.823,35.235,32.778,37.023,34.94,31.083000000000002
35.806,35.198,32.769,37.010999999999996,35.08,31.057
35.79,35.164,32.757,36.997,35.205999999999996,31.028000000000002
35.775,35.132,32.744,36.983000000000004,35.318000000000005,30.997
35.76,35.102,32.728,36.968,35.416,30.965999999999998
35.745,35.075,32.71,36.952,35.5,30.936
35.731,35.048,32.692,36.934,35.571,30.906999999999996
35.717,35.022,32.672,36.915,35.631,30.88
35.703,34.995,32.653,36.896,35.679,30.855
35.688,34.966,32.635,36.876,35.718,30.833000000000002
35.673,34.936,32.618,36.856,35.748000000000005,30.813000000000002
35.657,34.903,32.603,36.835,35.771,30.795
35.64,34.868,32.591,36.814,35.787,30.778000000000002
35.622,34.830999999999996,32.580999999999996,36.791,35.796,30.763
35.604,34.792,32.573,36.766,35.8,30.749000000000002
35.585,34.75,32.564,36.738,35.798,30.735
35.564,34.708,32.555,36.709,35.792,30.721999999999998
35.543,34.664,32.544000000000004,36.679,35.783,30.71
35.52,34.622,32.53,36.648,35.772,30.698
35.494,34.580999999999996,32.515,36.616,35.760999999999996,30.688000000000002
35.466,34.544000000000004,32.497,36.584,35.751,30.679000000000002
35.435,34.510999999999996,32.478,36.55,35.742,30.669
35.400999999999996,34.483000000000004,32.457,36.515,35.735,30.660999999999998
35.364000000000004,34.46,32.434,36.478,35.73,30.654
35.324,34.443000000000005,32.41,36.44,35.727,30.649
35.281,34.429,32.385999999999996,36.4,35.725,30.65
35.236,34.419000000000004,32.363,36.358000000000004,35.724000000000004,30.658
35.186,34.412,32.34,36.313,35.725,30.676
35.134,34.407,32.32,36.266999999999996,35.726,30.706999999999997
35.078,34.404,32.303000000000004,36.218,35.726,30.755
35.018,34.402,32.288000000000004,36.169000000000004,35.724000000000004,30.823
34.957,34.403,32.275,36.12,35.72,30.912
34.893,34.404,32.265,36.07,35.711999999999996,31.024
34.828,34.407,32.256,36.019,35.701,31.162
34.762,34.412,32.247,35.968,35.684,31.326
34.698,34.419000000000004,32.236999999999995,35.917,35.661,31.515
34.635,34.426,32.226,35.865,35.634,31.728
34.575,34.434,32.214,35.814,35.603,31.964000000000002
34.518,34.442,32.2,35.763000000000005,35.567,32.223
34.464,34.45,32.184,35.713,35.527,32.501999999999995
34.412,34.455999999999996,32.165,35.664,35.485,32.799
34.363,34.461,32.146,35.615,35.44,33.11
34.317,34.465,32.125,35.567,35.395,33.431
34.274,34.467,32.105,35.52,35.348,33.756
34.233000000000004,34.47,32.086,35.474000000000004,35.299,34.082
34.194,34.471,32.069,35.429,35.25,34.404
34.157,34.472,32.054,35.383,35.201,34.719
34.122,34.472,32.043,35.338,35.152,35.022
34.088,34.471,32.035,35.293,35.104,35.312
34.055,34.469,32.028,35.249,35.056999999999995,35.588
34.023,34.465,32.023,35.207,35.012,35.849000000000004
33.991,34.46,32.016999999999996,35.166,34.971,36.094
33.959,34.453,32.012,35.126,34.933,36.321999999999996
33.927,34.443000000000005,32.005,35.09,34.9,36.532
33.893,34.431,31.996,35.055,34.871,36.724000000000004
33.858000000000004,34.416,31.985,35.023,34.848,36.896
33.821,34.4,31.971,34.992,34.829,37.05
33.783,34.382,31.955,34.961,34.816,37.184
33.744,34.364000000000004,31.936,34.93,34.806999999999995,37.3
33.703,34.346,31.915,34.899,34.802,37.398
33.66,34.329,31.892,34.868,34.8,37.48
33.618,34.313,31.868000000000002,34.836999999999996,34.801,37.547
33.574,34.297,31.845,34.808,34.803000000000004,37.603
33.53,34.282,31.823,34.78,34.805,37.646
33.486,34.268,31.803,34.751999999999995,34.805,37.679
33.443000000000005,34.254,31.785,34.724000000000004,34.804,37.701
33.4,34.24,31.769000000000002,34.696,34.801,37.713
33.358000000000004,34.225,31.755,34.668,34.795,37.715
33.317,34.209,31.741999999999997,34.64,34.787,37.71
33.278,34.193000000000005,31.730999999999998,34.611,34.777,37.696999999999996
33.241,34.174,31.721,34.583,34.765,37.677
33.205999999999996,34.155,31.712,34.553000000000004,34.753,37.653
33.171,34.135999999999996,31.704,34.522,34.74,37.623000000000005
33.139,34.117,31.695999999999998,34.491,34.727,37.589
33.106,34.099000000000004,31.688000000000002,34.457,34.714,37.551
33.074,34.082,31.679000000000002,34.423,34.7,37.510999999999996
33.042,34.066,31.671,34.387,34.685,37.468
33.01,34.052,31.664,34.351,34.668,37.424
32.977,34.038000000000004,31.66,34.314,34.647,37.38
32.944,34.025,31.663,34.278,34.624,37.336999999999996
32.91,34.012,31.674,34.242,34.597,37.294000000000004
32.875,34.0,31.695,34.205999999999996,34.567,37.251
32.838,33.986999999999995,31.73,34.172,34.533,37.208
32.802,33.976,31.779,34.139,34.497,37.165
32.766,33.965,31.844,34.106,34.457,37.12
32.731,33.955999999999996,31.925,34.074,34.416,37.074
32.698,33.949,32.021,34.042,34.373000000000005,37.025
32.667,33.943000000000005,32.133,34.010999999999996,34.329,36.974000000000004
32.638000000000005,33.937,32.26,33.98,34.285,36.922
32.61,33.931999999999995,32.4,33.95,34.242,36.868
32.585,33.926,32.549,33.922,34.202,36.812
32.561,33.919000000000004,32.705,33.895,34.163000000000004,36.754
32.538000000000004,33.911,32.865,33.869,34.126999999999995,36.694
32.516,33.9,33.028,33.844,34.094,36.63
32.496,33.885999999999996,33.191,33.82,34.062,36.563
32.476,33.868,33.352,33.797,34.032,36.494
32.455999999999996,33.846,33.509,33.775,34.001999999999995,36.422
32.435,33.82,33.662,33.754,33.972,36.348
32.414,33.793,33.808,33.735,33.942,36.271
32.393,33.764,33.948,33.717,33.911,36.194
32.371,33.736,34.08,33.699,33.88,36.115
32.35,33.708,34.204,33.681999999999995,33.849000000000004,36.036
32.328,33.683,34.319,33.664,33.818000000000005,35.957
32.305,33.66,34.423,33.647,33.786,35.88
32.282,33.639,34.516,33.631,33.755,35.806
32.258,33.622,34.597,33.614000000000004,33.724000000000004,35.736
32.233000000000004,33.606,34.666,33.597,33.692,35.671
32.205999999999996,33.592,34.721,33.580999999999996,33.661,35.61
32.179,33.578,34.763000000000005,33.565,33.631,35.555
32.15,33.564,34.79,33.549,33.603,35.505
32.121,33.549,34.804,33.531,33.575,35.46
32.091,33.533,34.804,33.514,33.55,35.421
32.062,33.515,34.793,33.496,33.527,35.387
32.032,33.497,34.773,33.478,33.505,35.355
32.004,33.479,34.747,33.46,33.486999999999995,35.325
31.976999999999997,33.461999999999996,34.718,33.441,33.469,35.296
31.951999999999998,33.446,34.687,33.421,33.453,35.266999999999996
31.928,33.433,34.655,33.400999999999996,33.438,35.24
31.904,33.423,34.625,33.38,33.422,35.214
31.881,33.417,34.596,33.359,33.406,35.189
31.858,33.416,34.567,33.335,33.387,35.166
31.835,33.422,34.539,33.31,33.367,35.145
31.811999999999998,33.437,34.509,33.283,33.344,35.125
31.788,33.461999999999996,34.478,33.255,33.319,35.106
31.764,33.498000000000005,34.446,33.227,33.292,35.09
31.741,33.547,34.412,33.2,33.263000000000005,35.076
31.72,33.61,34.378,33.176,33.235,35.065
31.699,33.686,34.343,33.155,33.205999999999996,35.056
31.678,33.777,34.31,33.14,33.178000000000004,35.049
31.658,33.881,34.278,33.131,33.150999999999996,35.043
31.639,33.998000000000005,34.248000000000005,33.13,33.124,35.034
31.62,34.126999999999995,34.221,33.141,33.099000000000004,35.023
31.6,34.265,34.195,33.165,33.076,35.007
31.58,34.409,34.171,33.205999999999996,33.053000000000004,34.985
31.559,34.555,34.146,33.264,33.032,34.959
31.537,34.703,34.122,33.341,33.012,34.928000000000004
31.514,34.848,34.097,33.44,32.992,34.894
31.491,34.99,34.071999999999996,33.56,32.972,34.856
31.468000000000004,35.126999999999995,34.045,33.702,32.952,34.817
31.445999999999998,35.255,34.016,33.866,32.931999999999995,34.777
31.426,35.375,33.986999999999995,34.05,32.91,34.736
31.408,35.483000000000004,33.955999999999996,34.253,32.888000000000005,34.694
31.394000000000002,35.580999999999996,33.924,34.473,32.863,34.650999999999996
31.383000000000003,35.667,33.891,34.709,32.836,34.606
31.375,35.741,33.857,34.957,32.806999999999995,34.56
31.371,35.803000000000004,33.821999999999996,35.216,32.777,34.512
31.369,35.854,33.789,35.482,32.745,34.463
31.369,35.894,33.757,35.753,32.714,34.414
31.37,35.924,33.728,36.024,32.681999999999995,34.365
31.372,35.942,33.702,36.292,32.652,34.316
31.374000000000002,35.951,33.679,36.552,32.623000000000005,34.266999999999996
31.375,35.95,33.66,36.803000000000004,32.597,34.219
31.375,35.941,33.644,37.043,32.573,34.17
31.373,35.923,33.632,37.27,32.55,34.12
31.369,35.9,33.625,37.483000000000004,32.53,34.068000000000005
31.362,35.87,33.622,37.683,32.510999999999996,34.015
31.351999999999997,35.836999999999996,33.624,37.869,32.493,33.961
31.34,35.8,33.631,38.042,32.475,33.906
31.325,35.76,33.641999999999996,38.201,32.458,33.852
31.307,35.72,33.657,38.345,32.439,33.799
31.288,35.678000000000004,33.675,38.476,32.42,33.748000000000005
31.267,35.634,33.696999999999996,38.593,32.397,33.698
31.245,35.59,33.721,38.695,32.372,33.650999999999996
31.223000000000003,35.545,33.744,38.782,32.343,33.606
31.201999999999998,35.501999999999995,33.765,38.855,32.31,33.562
31.182,35.461,33.783,38.914,32.275,33.518
31.164,35.421,33.797,38.961999999999996,32.236999999999995,33.475
31.15,35.385,33.809,38.999,32.196999999999996,33.431999999999995
31.139,35.352,33.817,39.025999999999996,32.155,33.388000000000005
31.131999999999998,35.321999999999996,33.823,39.047,32.113,33.345
31.129,35.295,33.827,39.063,32.07,33.302
31.127,35.269,33.830999999999996,39.075,32.027,33.259
31.127,35.244,33.834,39.085,31.984,33.218
31.128,35.22,33.836999999999996,39.094,31.941,33.178000000000004
31.127,35.194,33.839,39.102,31.899,33.141
31.125999999999998,35.167,33.841,39.108000000000004,31.858,33.105
31.123,35.137,33.842,39.114000000000004,31.818,33.07
31.118000000000002,35.105,33.843,39.118,31.781,33.037
31.114,35.069,33.843,39.122,31.745,33.004
31.111,35.031,33.843,39.125,31.712,32.97
31.112,34.991,33.84,39.13,31.683000000000003,32.937
31.12,34.95,33.836,39.135,31.656999999999996,32.902
31.138,34.91,33.83,39.141999999999996,31.636999999999997,32.866
31.168000000000003,34.872,33.821,39.15,31.622,32.828
31.213,34.835,33.812,39.159,31.615,32.789
31.276,34.801,33.801,39.168,31.616,32.749
31.358,34.768,33.79,39.177,31.627,32.707
31.461,34.738,33.779,39.186,31.65,32.665
31.585,34.71,33.769,39.193000000000005,31.686,32.623000000000005
31.732,34.684,33.760999999999996,39.196999999999996,31.739,32.580999999999996
31.903000000000002,34.661,33.754,39.196,31.809,32.539
32.096,34.64,33.748000000000005,39.191,31.898000000000003,32.496
32.312,34.623000000000005,33.743,39.181,32.006,32.455
32.549,34.61,33.736,39.165,32.133,32.414
32.804,34.6,33.728,39.144,32.278,32.375
33.075,34.595,33.716,39.119,32.44,32.338
33.359,34.593,33.702,39.089,32.617,32.303000000000004
33.653,34.594,33.684,39.056,32.806,32.272
33.953,34.596,33.663000000000004,39.019,33.004,32.244
34.256,34.6,33.638000000000005,38.978,33.208,32.221
34.558,34.604,33.611,38.934,33.415,32.202
34.857,34.608000000000004,33.582,38.887,33.62,32.186
35.150999999999996,34.613,33.552,38.836,33.823,32.172
35.437,34.618,33.522,38.782,34.018,32.16
35.711999999999996,34.625,33.493,38.724000000000004,34.204,32.147
35.974000000000004,34.632,33.466,38.664,34.378,32.134
36.222,34.641,33.443000000000005,38.603,34.54,32.12
36.454,34.652,33.422,38.541,34.688,32.104
36.669000000000004,34.664,33.405,38.479,34.821999999999996,32.086999999999996
36.865,34.678000000000004,33.39,38.419000000000004,34.941,32.068000000000005
37.043,34.694,33.376999999999995,38.361,35.046,32.047
37.202,34.71,33.365,38.304,35.137,32.024
37.344,34.725,33.354,38.25,35.217,31.999000000000002
37.469,34.738,33.341,38.196999999999996,35.284,31.971999999999998
37.58,34.747,33.327,38.147,35.34,31.944000000000003
37.677,34.751,33.308,38.1,35.384,31.915
37.760999999999996,34.75,33.287,38.056,35.418,31.885
37.835,34.744,33.262,38.015,35.441,31.855999999999998
37.898,34.733000000000004,33.236,37.977,35.455,31.829
37.952,34.72,33.209,37.944,35.461999999999996,31.804000000000002
37.999,34.704,33.183,37.913000000000004,35.463,31.781
38.039,34.687,33.158,37.885,35.459,31.761
38.073,34.67,33.135,37.861,35.452,31.741999999999997
38.103,34.654,33.116,37.839,35.445,31.723000000000003
38.13,34.639,33.1,37.819,35.436,31.706
38.156,34.624,33.086999999999996,37.8,35.428000000000004,31.686999999999998
38.18,34.609,33.078,37.782,35.422,31.668000000000003
38.202,34.595,33.073,37.764,35.417,31.648000000000003
38.225,34.579,33.07,37.746,35.412,31.628
38.246,34.562,33.071,37.728,35.409,31.607
38.266,34.544000000000004,33.071999999999996,37.709,35.407,31.587
38.285,34.524,33.074,37.691,35.405,31.566
38.303000000000004,34.503,33.074,37.672,35.402,31.546999999999997
38.32,34.482,33.071,37.652,35.399,31.528000000000002
38.336,34.461999999999996,33.065,37.63,35.395,31.51
38.351,34.442,33.055,37.605,35.389,31.493000000000002
38.364000000000004,34.423,33.042,37.578,35.381,31.476
38.376,34.405,33.027,37.548,35.371,31.459
38.387,34.387,33.01,37.516,35.358000000000004,31.441
38.395,34.368,32.993,37.481,35.344,31.421999999999997
38.400999999999996,34.349000000000004,32.975,37.445,35.327,31.401
38.405,34.329,32.958,37.407,35.31,31.379
38.406,34.309,32.94,37.367,35.291,31.358
38.405,34.287,32.923,37.325,35.27,31.339000000000002
38.400999999999996,34.264,32.905,37.281,35.248000000000005,31.323
38.393,34.242,32.888000000000005,37.234,35.224000000000004,31.313000000000002
38.382,34.22,32.871,37.185,35.198,31.311
38.367,34.2,32.854,37.133,35.171,31.319000000000003
38.348,34.181999999999995,32.84,37.078,35.141,31.340999999999998
38.325,34.167,32.827,37.021,35.11,31.377
38.297,34.155,32.816,36.963,35.078,31.43
38.264,34.145,32.806999999999995,36.904,35.044000000000004,31.502
38.226,34.137,32.801,36.843,35.01,31.596
38.185,34.129,32.799,36.782,34.974000000000004,31.712
38.139,34.121,32.804,36.719,34.939,31.853
38.09,34.111999999999995,32.817,36.656,34.904,32.018
38.037,34.101,32.839,36.593,34.869,32.207
37.982,34.088,32.873000000000005,36.53,34.836,32.418
37.924,34.071,32.919000000000004,36.467,34.804,32.650999999999996
37.866,34.052,32.978,36.405,34.774,32.903
37.806,34.031,33.052,36.343,34.745,33.173
37.748000000000005,34.006,33.139,36.283,34.719,33.458
37.691,33.981,33.24,36.225,34.696,33.755
37.635999999999996,33.955,33.354,36.169000000000004,34.675,34.061
37.584,33.93,33.48,36.113,34.656,34.374
37.536,33.907,33.616,36.058,34.64,34.691
37.492,33.885,33.762,36.004,34.628,35.008
37.453,33.866,33.914,35.95,34.618,35.321
37.419000000000004,33.848,34.07,35.898,34.611,35.628
37.39,33.830999999999996,34.228,35.849000000000004,34.606,35.925
37.365,33.814,34.385999999999996,35.801,34.605,36.209
37.342,33.797,34.54,35.754,34.607,36.479
37.321999999999996,33.782,34.687,35.709,34.611,36.734
37.303000000000004,33.766999999999996,34.827,35.666,34.617,36.972
37.285,33.753,34.955999999999996,35.623000000000005,34.625,37.192
37.266,33.74,35.076,35.580999999999996,34.633,37.396
37.247,33.728,35.184,35.54,34.641,37.580999999999996
37.224000000000004,33.717,35.282,35.498000000000005,34.648,37.749
37.198,33.707,35.368,35.455999999999996,34.652,37.899
37.168,33.696999999999996,35.444,35.414,34.653,38.03
37.135999999999996,33.687,35.509,35.373000000000005,34.650999999999996,38.141999999999996
37.1,33.677,35.563,35.332,34.645,38.236
37.062,33.665,35.607,35.291,34.635,38.314
37.023,33.650999999999996,35.64,35.25,34.622,38.375
36.985,33.637,35.664,35.21,34.605,38.424
36.946,33.622,35.678000000000004,35.168,34.584,38.461999999999996
36.909,33.607,35.684,35.126,34.561,38.489000000000004
36.873000000000005,33.594,35.68,35.082,34.535,38.506
36.838,33.583,35.667,35.037,34.506,38.515
36.806,33.578,35.646,34.991,34.476,38.516999999999996
36.775,33.579,35.62,34.945,34.445,38.513000000000005
36.746,33.588,35.59,34.898,34.414,38.505
36.719,33.606,35.558,34.852,34.385,38.493
36.693000000000005,33.635999999999996,35.527,34.806999999999995,34.356,38.479
36.667,33.679,35.497,34.762,34.33,38.463
36.64,33.736,35.471,34.716,34.305,38.444
36.61,33.805,35.449,34.671,34.281,38.424
36.578,33.885999999999996,35.43,34.626,34.257,38.403
36.542,33.977,35.415,34.58,34.232,38.38
36.501999999999995,34.078,35.405,34.534,34.205999999999996,38.357
36.457,34.185,35.394,34.488,34.178000000000004,38.332
36.406,34.298,35.381,34.442,34.148,38.306999999999995
36.351,34.415,35.363,34.396,34.116,38.281
36.291,34.536,35.341,34.349000000000004,34.084,38.254
36.227,34.659,35.315,34.301,34.052,38.225
36.159,34.782,35.286,34.253,34.022,38.194
36.09,34.905,35.255,34.204,33.993,38.16
36.02,35.024,35.224000000000004,34.156,33.965,38.123000000000005
35.951,35.138000000000005,35.195,34.108000000000004,33.938,38.083
35.885999999999996,35.246,35.167,34.062,33.91,38.04
35.826,35.345,35.143,34.018,33.883,37.994
35.77,35.434,35.122,33.978,33.854,37.946
35.72,35.510999999999996,35.105,33.941,33.823,37.895
35.675,35.577,35.092,33.907,33.791,37.842
35.635,35.633,35.083,33.876,33.76,37.785
35.599000000000004,35.678000000000004,35.078,33.849000000000004,33.728,37.725
35.566,35.714,35.074,33.824,33.696,37.662
35.536,35.741,35.07,33.801,33.664,37.595
35.507,35.759,35.065,33.779,33.633,37.525
35.48,35.77,35.058,33.758,33.604,37.453
35.452,35.774,35.047,33.738,33.575,37.378
35.423,35.772,35.031,33.719,33.548,37.301
35.394,35.763000000000005,35.012,33.699,33.523,37.223
35.361999999999995,35.748000000000005,34.989000000000004,33.679,33.5,37.144
35.328,35.728,34.964,33.658,33.481,37.065
35.29,35.705,34.938,33.635999999999996,33.465,36.986
35.249,35.679,34.913000000000004,33.613,33.452,36.907
35.204,35.652,34.89,33.59,33.442,36.83
35.155,35.625,34.87,33.567,33.434,36.754
35.104,35.599000000000004,34.853,33.545,33.427,36.681
35.049,35.575,34.84,33.524,33.421,36.611
34.993,35.554,34.832,33.503,33.413000000000004,36.545
34.935,35.533,34.827,33.483000000000004,33.403,36.483000000000004
34.876999999999995,35.513000000000005,34.825,33.463,33.391,36.427
34.819,35.493,34.826,33.442,33.376,36.376
34.762,35.471,34.829,33.42,33.36,36.332
34.708,35.446999999999996,34.833,33.397,33.341,36.293
34.656,35.419000000000004,34.839,33.372,33.321,36.260999999999996
34.609,35.389,34.844,33.347,33.302,36.236
34.566,35.356,34.849000000000004,33.32,33.283,36.216
34.528,35.321,34.852,33.291,33.264,36.202
34.495,35.282,34.854,33.259,33.247,36.19
34.466,35.242,34.854,33.226,33.23,36.181
34.44,35.2,34.852,33.191,33.214,36.172
34.417,35.157,34.848,33.157,33.2,36.163000000000004
34.396,35.113,34.844,33.124,33.187,36.154
34.375,35.069,34.838,33.092,33.175,36.145
34.352,35.025,34.833,33.062,33.164,36.135999999999996
34.329,34.981,34.828,33.034,33.154,36.126
34.303000000000004,34.938,34.823,33.008,33.143,36.115
34.275,34.895,34.818000000000005,32.984,33.13,36.103
34.243,34.855,34.815,32.961,33.115,36.089
34.209,34.817,34.812,32.939,33.096,36.071999999999996
34.173,34.784,34.81,32.918,33.075,36.053000000000004
34.135,34.755,34.806999999999995,32.897,33.051,36.032
34.096,34.73,34.803000000000004,32.876999999999995,33.025999999999996,36.009
34.056999999999995,34.708,34.798,32.857,33.001,35.984
34.019,34.688,34.792,32.836,32.977,35.957
33.981,34.671,34.783,32.815,32.954,35.928000000000004
33.945,34.655,34.772,32.793,32.934,35.897
33.909,34.641999999999996,34.757,32.771,32.915,35.863
33.875,34.629,34.739000000000004,32.749,32.898,35.827
33.843,34.616,34.717,32.726,32.883,35.789
33.812,34.604,34.694,32.704,32.87,35.749
33.783,34.592,34.668,32.681999999999995,32.859,35.707
33.754,34.582,34.641999999999996,32.66,32.848,35.662
33.727,34.575,34.616,32.639,32.836999999999996,35.617
33.7,34.573,34.591,32.617,32.827,35.57
33.674,34.574,34.568000000000005,32.596,32.816,35.522
33.649,34.580999999999996,34.546,32.575,32.805,35.473
33.625,34.591,34.525999999999996,32.555,32.794000000000004,35.422
33.602,34.605,34.508,32.537,32.782,35.37
33.579,34.622,34.491,32.52,32.77,35.318000000000005
33.556,34.639,34.475,32.505,32.757,35.265
33.533,34.658,34.46,32.492,32.743,35.21
33.508,34.677,34.445,32.481,32.728,35.155
33.482,34.695,34.428000000000004,32.474000000000004,32.711,35.1
33.454,34.711999999999996,34.41,32.471,32.694,35.044000000000004
33.423,34.727,34.391,32.476,32.675,34.989000000000004
33.389,34.741,34.37,32.489000000000004,32.656,34.934
33.353,34.753,34.348,32.514,32.635999999999996,34.879
33.316,34.764,34.325,32.551,32.616,34.824
33.279,34.772,34.304,32.603,32.594,34.77
33.242,34.78,34.284,32.671,32.571999999999996,34.715
33.207,34.785,34.266999999999996,32.758,32.549,34.661
33.174,34.788000000000004,34.253,32.865,32.524,34.606
33.141999999999996,34.788000000000004,34.241,32.994,32.497,34.552
33.113,34.786,34.231,33.146,32.469,34.498000000000005
33.088,34.782,34.222,33.321,32.439,34.445
33.065,34.775,34.213,33.519,32.41,34.394
33.046,34.766999999999996,34.203,33.736999999999995,32.382,34.343
33.029,34.758,34.191,33.974000000000004,32.358000000000004,34.294000000000004
33.012,34.75,34.177,34.227,32.34,34.244
32.996,34.742,34.16,34.495,32.33,34.194
32.98,34.735,34.141,34.773,32.330999999999996,34.145
32.961999999999996,34.729,34.122,35.056999999999995,32.344,34.095
32.942,34.722,34.102,35.345,32.372,34.044000000000004
32.92,34.716,34.082,35.631,32.414,33.994
32.895,34.708,34.064,35.915,32.473,33.945
32.868,34.698,34.046,36.191,32.549,33.898
32.838,34.684,34.03,36.459,32.641,33.851
32.806,34.668,34.015,36.715,32.75,33.806
32.772,34.648,34.001999999999995,36.958,32.875,33.76
32.736,34.624,33.989000000000004,37.184,33.015,33.714
32.698,34.598,33.977,37.393,33.169000000000004,33.668
32.658,34.57,33.964,37.584,33.334,33.622
32.619,34.541,33.951,37.757,33.507,33.575
32.58,34.512,33.937,37.914,33.687,33.529
32.543,34.484,33.92,38.055,33.871,33.483000000000004
32.51,34.458,33.902,38.181999999999995,34.056,33.439
32.482,34.434,33.881,38.297,34.24,33.397
32.459,34.413000000000004,33.858000000000004,38.400999999999996,34.421,33.358000000000004
32.441,34.395,33.835,38.495,34.595,33.321999999999996
32.429,34.379,33.81,38.579,34.763000000000005,33.287
32.421,34.366,33.787,38.654,34.921,33.254
32.418,34.354,33.763000000000005,38.722,35.07,33.22
32.42,34.344,33.741,38.78,35.207,33.187
32.424,34.335,33.72,38.830999999999996,35.332,33.153
32.43,34.327,33.698,38.875,35.445,33.119
32.436,34.32,33.677,38.911,35.545,33.085
32.442,34.314,33.655,38.94,35.634,33.052
32.446,34.309,33.634,38.963,35.711,33.021
32.446999999999996,34.303000000000004,33.613,38.981,35.777,32.992
32.444,34.296,33.594,38.995,35.833,32.965
32.436,34.286,33.577,39.007,35.88,32.939
32.425,34.272,33.561,39.015,35.919000000000004,32.913000000000004
32.409,34.255,33.548,39.021,35.951,32.888000000000005
32.391,34.235,33.537,39.024,35.977,32.863
32.37,34.214,33.528,39.025999999999996,35.998000000000005,32.836999999999996
32.347,34.19,33.523,39.024,36.016,32.811
32.323,34.165,33.521,39.019,36.029,32.784
32.299,34.14,33.524,39.010999999999996,36.04,32.757
32.275,34.116,33.534,39.0,36.046,32.732
32.251999999999995,34.093,33.553000000000004,38.988,36.049,32.707
32.231,34.074,33.582,38.975,36.05,32.683
32.211,34.056999999999995,33.621,38.961,36.048,32.661
32.192,34.045,33.674,38.946999999999996,36.045,32.639
32.176,34.036,33.739000000000004,38.931999999999995,36.04,32.619
32.16,34.029,33.82,38.915,36.035,32.6
32.146,34.023,33.916,38.897,36.031,32.580999999999996
32.132,34.016999999999996,34.027,38.876,36.027,32.561
32.118,34.009,34.154,38.85,36.024,32.542
32.105,33.998000000000005,34.294000000000004,38.821,36.022,32.522
32.092,33.985,34.446999999999996,38.787,36.021,32.501999999999995
32.079,33.968,34.609,38.749,36.02,32.482
32.067,33.95,34.775999999999996,38.705999999999996,36.021,32.461999999999996
32.055,33.93,34.946,38.66,36.021,32.443000000000005
32.042,33.91,35.116,38.611,36.02,32.424
32.028,33.889,35.282,38.559,36.016999999999996,32.406
32.013000000000005,33.87,35.444,38.506,36.01,32.388000000000005
31.996,33.853,35.598,38.451,35.999,32.37
31.978,33.838,35.745,38.394,35.984,32.353
31.96,33.825,35.884,38.336,35.964,32.336
31.94,33.815,36.016,38.275999999999996,35.939,32.321
31.92,33.806999999999995,36.141,38.215,35.909,32.305
31.9,33.802,36.259,38.153,35.876,32.29
31.881,33.801,36.37,38.091,35.84,32.275
31.866,33.803000000000004,36.474000000000004,38.031,35.801,32.26
31.854,33.811,36.57,37.973,35.759,32.244
31.848000000000003,33.826,36.658,37.92,35.716,32.226
31.848000000000003,33.85,36.736,37.872,35.673,32.207
31.855999999999998,33.884,36.803000000000004,37.83,35.63,32.187
31.875,33.93,36.859,37.792,35.589,32.165
31.906999999999996,33.989000000000004,36.902,37.758,35.55,32.141
31.953000000000003,34.059,36.935,37.727,35.513000000000005,32.116
32.016,34.14,36.958,37.7,35.48,32.09
32.1,34.232,36.973,37.675,35.45,32.064
32.207,34.334,36.98,37.653,35.423,32.039
32.338,34.444,36.98,37.632,35.4,32.015
32.494,34.56,36.975,37.613,35.38,31.991999999999997
32.675,34.681999999999995,36.966,37.593,35.364000000000004,31.97
32.881,34.806999999999995,36.954,37.575,35.351,31.95
33.11,34.934,36.94,37.556999999999995,35.342,31.93
33.363,35.06,36.924,37.54,35.336,31.91
33.635999999999996,35.185,36.908,37.521,35.334,31.89
33.927,35.306999999999995,36.891999999999996,37.501999999999995,35.335,31.868000000000002
34.232,35.425,36.879,37.481,35.336999999999996,31.845
34.546,35.537,36.867,37.458,35.341,31.820999999999998
34.867,35.643,36.857,37.431999999999995,35.345,31.796999999999997
35.19,35.741,36.849000000000004,37.405,35.346,31.772
35.512,35.83,36.841,37.376,35.346,31.746
35.83,35.908,36.833,37.346,35.343,31.721999999999998
36.141,35.976,36.824,37.315,35.339,31.698
36.443000000000005,36.032,36.813,37.284,35.333,31.675
36.733000000000004,36.076,36.802,37.251999999999995,35.325,31.655
37.009,36.109,36.79,37.218,35.317,31.636999999999997
37.272,36.132,36.778,37.183,35.309,31.623
37.52,36.145,36.766,37.147,35.302,31.613000000000003
37.751999999999995,36.152,36.756,37.109,35.294000000000004,31.608
37.967,36.152,36.746,37.07,35.286,31.61
38.165,36.145,36.736,37.03,35.277,31.62
38.348,36.134,36.727,36.989000000000004,35.268,31.641
38.513000000000005,36.117,36.716,36.949,35.257,31.676
38.661,36.096,36.705,36.909,35.244,31.729
38.794000000000004,36.071999999999996,36.692,36.87,35.23,31.801
38.911,36.047,36.676,36.830999999999996,35.214,31.895
39.013000000000005,36.021,36.656,36.793,35.195,32.013000000000005
39.101,35.997,36.632,36.755,35.174,32.155
39.175,35.974000000000004,36.604,36.717,35.15,32.324
39.236,35.954,36.573,36.676,35.124,32.516999999999996
39.287,35.935,36.54,36.633,35.096,32.735
39.328,35.917,36.505,36.588,35.067,32.977
39.361,35.9,36.47,36.54,35.038000000000004,33.24
39.385999999999996,35.883,36.435,36.49,35.01,33.522
39.405,35.865,36.403,36.438,34.983000000000004,33.82
39.419000000000004,35.845,36.373000000000005,36.38,34.958,34.132
39.43,35.821,36.347,36.314,34.934,34.454
39.439,35.792,36.324,36.238,34.912,34.784
39.448,35.758,36.304,36.156,34.888000000000005,35.119
39.458,35.719,36.288000000000004,36.068000000000005,34.864000000000004,35.454
39.468,35.676,36.275999999999996,35.98,34.84,35.787
39.48,35.631,36.266,35.893,34.814,36.114000000000004
39.493,35.585,36.259,35.81,34.788000000000004,36.433
39.506,35.54,36.253,35.732,34.760999999999996,36.741
39.519,35.498000000000005,36.248000000000005,35.66,34.735,37.036
39.534,35.458,36.244,35.594,34.711,37.318000000000005
39.549,35.423,36.24,35.535,34.688,37.583
39.565,35.391,36.236999999999995,35.484,34.667,37.832
39.583,35.363,36.236,35.441,34.647,38.063
39.602,35.336999999999996,36.236999999999995,35.405,34.629,38.275
39.621,35.315,36.239000000000004,35.374,34.611,38.469
39.64,35.295,36.243,35.347,34.593,38.644
39.658,35.278,36.248000000000005,35.321999999999996,34.575,38.801
39.676,35.264,36.254,35.299,34.556,38.94
39.692,35.251999999999995,36.262,35.277,34.534,39.061
39.704,35.242,36.269,35.253,34.51,39.165
39.711999999999996,35.234,36.277,35.227,34.483000000000004,39.251999999999995
39.716,35.229,36.284,35.196999999999996,34.453,39.323
39.713,35.225,36.29,35.164,34.42,39.38
39.702,35.223,36.296,35.126,34.384,39.424
39.683,35.222,36.299,35.083,34.347,39.457
39.655,35.222,36.299,35.036,34.31,39.479
39.62,35.223,36.295,34.985,34.274,39.493
39.577,35.225,36.287,34.931999999999995,34.239000000000004,39.499
39.527,35.226,36.274,34.876999999999995,34.207,39.5
39.471,35.229,36.257,34.818000000000005,34.18,39.495
39.41,35.233000000000004,36.236,34.751999999999995,34.156,39.488
39.344,35.239000000000004,36.211,34.681999999999995,34.135,39.477
39.277,35.248000000000005,36.184,34.608000000000004,34.116,39.463
39.208,35.258,36.158,34.535,34.098,39.448
39.141,35.269,36.13,34.464,34.080999999999996,39.431
39.076,35.283,36.103,34.398,34.063,39.413000000000004
39.014,35.298,36.077,34.339,34.045,39.395
38.955999999999996,35.314,36.052,34.289,34.025999999999996,39.376
38.903,35.33,36.028,34.247,34.006,39.357
38.856,35.345,36.005,34.213,33.988,39.336999999999996
38.815,35.358000000000004,35.982,34.188,33.969,39.315
38.78,35.368,35.958,34.17,33.951,39.293
38.749,35.374,35.933,34.157,33.934,39.269
38.722,35.376999999999995,35.907,34.147,33.917,39.243
38.696999999999996,35.376,35.88,34.14,33.902,39.216
38.675,35.372,35.851,34.134,33.888000000000005,39.186
38.654,35.367,35.82,34.128,33.876,39.153
38.634,35.36,35.789,34.12,33.866,39.117
38.615,35.351,35.758,34.109,33.857,39.079
38.597,35.341,35.728,34.095,33.85,39.037
38.579,35.330999999999996,35.701,34.078,33.842,38.992
38.56,35.32,35.676,34.056,33.835,38.943000000000005
38.54,35.31,35.654,34.031,33.825,38.889
38.519,35.3,35.635,34.003,33.813,38.830999999999996
38.497,35.291,35.617,33.974000000000004,33.799,38.769
38.474000000000004,35.282,35.6,33.943000000000005,33.781,38.703
38.45,35.274,35.584,33.911,33.760999999999996,38.632
38.424,35.266999999999996,35.567,33.879,33.738,38.558
38.396,35.259,35.549,33.845,33.714,38.481
38.366,35.25,35.53,33.81,33.69,38.402
38.334,35.24,35.509,33.774,33.666,38.321
38.299,35.229,35.486,33.736999999999995,33.644,38.24
38.260999999999996,35.216,35.463,33.699,33.622,38.158
38.22,35.202,35.439,33.66,33.602,38.078
38.177,35.185,35.414,33.621,33.582,37.999
38.132,35.166,35.389,33.584,33.564,37.925
38.086,35.146,35.363,33.547,33.547,37.854
38.037,35.125,35.336999999999996,33.510999999999996,33.531,37.788000000000004
37.986999999999995,35.103,35.311,33.476,33.516,37.726
37.934,35.083,35.286,33.44,33.501999999999995,37.669000000000004
37.879,35.063,35.260999999999996,33.404,33.489000000000004,37.615
37.823,35.045,35.238,33.368,33.476,37.566
37.765,35.029,35.216,33.332,33.461999999999996,37.522
37.707,35.015,35.196,33.295,33.446999999999996,37.483000000000004
37.649,35.001999999999995,35.177,33.259,33.43,37.448
37.59,34.992,35.159,33.224000000000004,33.411,37.417
37.532,34.982,35.141999999999996,33.19,33.39,37.39
37.475,34.974000000000004,35.124,33.158,33.37,37.365
37.419000000000004,34.965,35.104,33.126999999999995,33.351,37.344
37.363,34.955999999999996,35.082,33.097,33.336,37.324
37.308,34.946999999999996,35.056,33.069,33.326,37.305
37.253,34.936,35.028,33.043,33.323,37.286
37.196999999999996,34.924,34.998000000000005,33.018,33.328,37.268
37.141,34.912,34.965,32.995,33.344,37.249
37.085,34.9,34.931999999999995,32.973,33.37,37.23
37.028,34.888000000000005,34.897,32.951,33.409,37.211999999999996
36.971,34.875,34.864000000000004,32.929,33.46,37.194
36.911,34.861999999999995,34.832,32.906,33.524,37.175
36.85,34.848,34.802,32.884,33.603,37.155
36.787,34.833,34.774,32.86,33.698,37.133
36.723,34.817,34.747,32.836999999999996,33.806,37.108000000000004
36.658,34.801,34.723,32.814,33.929,37.082
36.593,34.784,34.7,32.793,34.063,37.053000000000004
36.528,34.766999999999996,34.679,32.775,34.209,37.023
36.463,34.75,34.659,32.760999999999996,34.365,36.992
36.399,34.733000000000004,34.638000000000005,32.751,34.529,36.958
36.336,34.715,34.615,32.747,34.699,36.922
36.273,34.698,34.59,32.749,34.873000000000005,36.883
36.21,34.681,34.563,32.760999999999996,35.051,36.841
36.148,34.666,34.534,32.784,35.231,36.797
36.088,34.65,34.504,32.82,35.41,36.75
36.03,34.634,34.474000000000004,32.873000000000005,35.586,36.7
35.975,34.618,34.445,32.943000000000005,35.756,36.647
35.921,34.601,34.418,33.032,35.919000000000004,36.592
35.87,34.583,34.396,33.141,36.07,36.536
35.821,34.564,34.38,33.27,36.211,36.479
35.773,34.543,34.369,33.418,36.338,36.421
35.726,34.522,34.366,33.586999999999996,36.453,36.363
35.68,34.501,34.369,33.775999999999996,36.555,36.303000000000004
35.635,34.479,34.38,33.983000000000004,36.645,36.243
35.589,34.461,34.4,34.208,36.724000000000004,36.181999999999995
35.543,34.446,34.428000000000004,34.449,36.792,36.119
35.497,34.439,34.465,34.703,36.849000000000004,36.058
35.451,34.44,34.514,34.966,36.898,35.997
35.406,34.452,34.574,35.236,36.937,35.939
35.361,34.474000000000004,34.648,35.509,36.968,35.882
35.317,34.507,34.736,35.781,36.991,35.826
35.274,34.552,34.839,36.049,37.005,35.77
35.233000000000004,34.607,34.955999999999996,36.31,37.010999999999996,35.714
35.194,34.674,35.089,36.562,37.010999999999996,35.657
35.156,34.751,35.235,36.804,37.004,35.598
35.121,34.839,35.393,37.034,36.992,35.537
35.086999999999996,34.937,35.561,37.251,36.975,35.477
35.055,35.044000000000004,35.738,37.453,36.954,35.415
35.025,35.158,35.92,37.64,36.931,35.354
34.997,35.279,36.107,37.813,36.907,35.294000000000004
34.97,35.405,36.297,37.97,36.885,35.235
34.944,35.533,36.486,38.111,36.864000000000004,35.175
34.918,35.663000000000004,36.672,38.236,36.845,35.115
34.891999999999996,35.791,36.854,38.347,36.828,35.054
34.866,35.918,37.031,38.444,36.814,34.993
34.838,36.041,37.199,38.529,36.801,34.931
34.809,36.159,37.359,38.602,36.79,34.869
34.778,36.272,37.508,38.664,36.78,34.808
34.743,36.38,37.645,38.717,36.773,34.749
34.705999999999996,36.481,37.769,38.759,36.766999999999996,34.692
34.667,36.576,37.88,38.793,36.764,34.635999999999996
34.626,36.664,37.98,38.819,36.764,34.583
34.583,36.745,38.067,38.838,36.764,34.532
34.54,36.818000000000005,38.143,38.85,36.766,34.483000000000004
34.497,36.883,38.207,38.857,36.766999999999996,34.435
34.455,36.94,38.260999999999996,38.858000000000004,36.766999999999996,34.387
34.415,36.988,38.305,38.855,36.765,34.341
34.376999999999995,37.028,38.339,38.847,36.759,34.295
34.341,37.059,38.364000000000004,38.835,36.749,34.249
34.306,37.083,38.38,38.821,36.735,34.204
34.273,37.099000000000004,38.389,38.805,36.715,34.159
34.242,37.109,38.39,38.787,36.69,34.115
34.211,37.113,38.385,38.766999999999996,36.66,34.071999999999996
34.183,37.109,38.376,38.746,36.625,34.032
34.157,37.1,38.366,38.724000000000004,36.586,33.993
34.132,37.085,38.355,38.701,36.545,33.955
34.11,37.068000000000005,38.345,38.677,36.501999999999995,33.918
34.089,37.048,38.336999999999996,38.650999999999996,36.459,33.883
34.07,37.025999999999996,38.332,38.623000000000005,36.416,33.85
34.052,37.003,38.328,38.593,36.376,33.819
34.035,36.978,38.327,38.562,36.339,33.789
34.018,36.952,38.327,38.53,36.304,33.76
34.001,36.925,38.326,38.496,36.273,33.731
33.983000000000004,36.898,38.326,38.461,36.245,33.701
33.965,36.869,38.325,38.423,36.22,33.67
33.946999999999996,36.839,38.324,38.38,36.199,33.638000000000005
33.927,36.806999999999995,38.32,38.333,36.18,33.604
33.906,36.774,38.314,38.28,36.165,33.57
33.883,36.738,38.304,38.222,36.154,33.536
33.857,36.698,38.29,38.16,36.146,33.501
33.829,36.654,38.273,38.094,36.141,33.467
33.8,36.606,38.253,38.025999999999996,36.139,33.431999999999995
33.77,36.555,38.23,37.957,36.139,33.398
33.74,36.504,38.205,37.888000000000005,36.14,33.365
33.71,36.454,38.176,37.819,36.143,33.334
33.683,36.406,38.145,37.753,36.146,33.306
33.656,36.36,38.114000000000004,37.688,36.148,33.279
33.631,36.318000000000005,38.082,37.626,36.149,33.254
33.608000000000004,36.28,38.051,37.566,36.148,33.23
33.586,36.245,38.021,37.508,36.145,33.205999999999996
33.567,36.213,37.991,37.452,36.139,33.183
33.549,36.185,37.961999999999996,37.399,36.13,33.16
33.532,36.16,37.933,37.349000000000004,36.118,33.137
33.515,36.139,37.903,37.302,36.103,33.114000000000004
33.498000000000005,36.12,37.872,37.259,36.084,33.09
33.481,36.104,37.838,37.22,36.063,33.066
33.463,36.091,37.802,37.184,36.039,33.042
33.444,36.080999999999996,37.764,37.150999999999996,36.013000000000005,33.016999999999996
33.424,36.075,37.727,37.12,35.984,32.991
33.403,36.071999999999996,37.691,37.09,35.953,32.964
33.381,36.071999999999996,37.658,37.06,35.918,32.934
33.356,36.075,37.63,37.029,35.88,32.903
33.329,36.08,37.606,36.999,35.839,32.87
33.3,36.086,37.588,36.968,35.795,32.836
33.269,36.093,37.575,36.938,35.749,32.802
33.236,36.1,37.568000000000005,36.908,35.701,32.766999999999996
33.203,36.108000000000004,37.566,36.878,35.653,32.732
33.171,36.117,37.567,36.848,35.605,32.696999999999996
33.14,36.126999999999995,37.571,36.818000000000005,35.559,32.663000000000004
33.11,36.139,37.577,36.787,35.514,32.629
33.083,36.153,37.584,36.756,35.47,32.598
33.058,36.168,37.591,36.723,35.428000000000004,32.569
33.035,36.183,37.598,36.687,35.388000000000005,32.543
33.014,36.198,37.605,36.649,35.35,32.521
32.995,36.211999999999996,37.61,36.609,35.313,32.501
32.977,36.223,37.614000000000004,36.567,35.278,32.485
32.961,36.232,37.616,36.525999999999996,35.244,32.472
32.946999999999996,36.238,37.617,36.484,35.21,32.461999999999996
32.934,36.242,37.614000000000004,36.442,35.176,32.451
32.922,36.243,37.609,36.399,35.141,32.44
32.912,36.243,37.601,36.355,35.104,32.428000000000004
32.902,36.241,37.592,36.311,35.065,32.413000000000004
32.895,36.239000000000004,37.58,36.266,35.025999999999996,32.395
32.888000000000005,36.236999999999995,37.567,36.221,34.986,32.374
32.883,36.235,37.553000000000004,36.176,34.946,32.35
32.878,36.233000000000004,37.536,36.134,34.906,32.324
32.872,36.231,37.518,36.092,34.867,32.297
32.864000000000004,36.229,37.497,36.051,34.829,32.269
32.852,36.226,37.474000000000004,36.009,34.792,32.242
32.838,36.223,37.449,35.968,34.756,32.215
32.821,36.217,37.421,35.924,34.719,32.189
32.801,36.21,37.391,35.88,34.681999999999995,32.163000000000004
32.778,36.202,37.36,35.834,34.644,32.137
32.754,36.194,37.329,35.786,34.606,32.111
32.728,36.185,37.297,35.738,34.567,32.086
32.702,36.176,37.266999999999996,35.688,34.529,32.061
32.676,36.168,37.238,35.637,34.49,32.037
32.65,36.16,37.209,35.584,34.453,32.015
32.623000000000005,36.152,37.181,35.531,34.417,31.993000000000002
32.596,36.141999999999996,37.153,35.477,34.382,31.973000000000003
32.57,36.131,37.125,35.422,34.348,31.955
32.543,36.118,37.096,35.367,34.315,31.938000000000002
32.516,36.102,37.066,35.312,34.284,31.923000000000002
32.489000000000004,36.083,37.036,35.257,34.255,31.909000000000002
32.461,36.063,37.004,35.201,34.227,31.895
32.435,36.041,36.973,35.146,34.201,31.883000000000003
32.409,36.019,36.943000000000005,35.09,34.177,31.87
32.385999999999996,35.998000000000005,36.914,35.033,34.154,31.858
32.365,35.978,36.885999999999996,34.976,34.133,31.846999999999998
32.348,35.958,36.861,34.917,34.111,31.836
32.336,35.94,36.836,34.857,34.089,31.826999999999998
32.333,35.921,36.813,34.798,34.067,31.819000000000003
32.338,35.900999999999996,36.79,34.738,34.044000000000004,31.811
32.356,35.88,36.766,34.679,34.019,31.803
32.388000000000005,35.858000000000004,36.741,34.62,33.994,31.795
32.437,35.833,36.715,34.561,33.968,31.785999999999998
32.505,35.806,36.687,34.503,33.942,31.775
32.594,35.778,36.656,34.443000000000005,33.917,31.764
32.708,35.749,36.624,34.383,33.893,31.750999999999998
32.846,35.719,36.588,34.323,33.869,31.737
33.009,35.688,36.549,34.263000000000005,33.846,31.723000000000003
33.199,35.658,36.507,34.204,33.823,31.708000000000002
33.413000000000004,35.628,36.461,34.148,33.8,31.693
33.650999999999996,35.6,36.411,34.094,33.775999999999996,31.679000000000002
33.911,35.573,36.357,34.044000000000004,33.749,31.664
34.192,35.548,36.298,33.998000000000005,33.721,31.65
34.49,35.523,36.236,33.954,33.691,31.636
34.802,35.499,36.17,33.912,33.659,31.62
35.126,35.474000000000004,36.102,33.871,33.625,31.604
35.455999999999996,35.45,36.032,33.83,33.589,31.588
35.791,35.427,35.961,33.79,33.553000000000004,31.573
36.126999999999995,35.405,35.89,33.751999999999995,33.516,31.561
36.46,35.385,35.819,33.715,33.48,31.555
36.787,35.367,35.75,33.68,33.444,31.558000000000003
37.102,35.351,35.681999999999995,33.649,33.411,31.574
37.404,35.336999999999996,35.617,33.619,33.381,31.604
37.688,35.324,35.555,33.591,33.355,31.651
37.952,35.313,35.496,33.562,33.335,31.717
38.194,35.302,35.442,33.534,33.321,31.805
38.412,35.293,35.391,33.506,33.315,31.916999999999998
38.606,35.283,35.342,33.477,33.318000000000005,32.054
38.774,35.273,35.295,33.448,33.33,32.217
38.919000000000004,35.263000000000005,35.249,33.42,33.353,32.407
39.041,35.255,35.203,33.394,33.385999999999996,32.624
39.141,35.25,35.157,33.369,33.43,32.867
39.221,35.249,35.111,33.345,33.486,33.137
39.285,35.255,35.065,33.321,33.556,33.431
39.333,35.27,35.02,33.295,33.639,33.747
39.368,35.295,34.976,33.269,33.736999999999995,34.082
39.393,35.330999999999996,34.936,33.242,33.848,34.434
39.409,35.382,34.899,33.215,33.974000000000004,34.799
39.418,35.446,34.866,33.188,34.111999999999995,35.172
39.421,35.523,34.836999999999996,33.161,34.262,35.549
39.42,35.614000000000004,34.809,33.133,34.42,35.925
39.417,35.717,34.782,33.104,34.585,36.299
39.41,35.830999999999996,34.757,33.074,34.755,36.665
39.400999999999996,35.955,34.731,33.044000000000004,34.927,37.022
39.391999999999996,36.086,34.705999999999996,33.012,35.097,37.366
39.381,36.224000000000004,34.681,32.98,35.263000000000005,37.693000000000005
39.37,36.366,34.659,32.948,35.422,38.001999999999995
39.356,36.510999999999996,34.64,32.914,35.571999999999996,38.292
39.341,36.656,34.626999999999995,32.88,35.711999999999996,38.562
39.323,36.8,34.622,32.844,35.84,38.811
39.303000000000004,36.94,34.626,32.809,35.955,39.04
39.28,37.075,34.643,32.773,36.056,39.248000000000005
39.255,37.204,34.676,32.736999999999995,36.143,39.433
39.228,37.325,34.724000000000004,32.702,36.217,39.598
39.2,37.438,34.79,32.666,36.278,39.741
39.17,37.54,34.874,32.631,36.328,39.865
39.14,37.632,34.976,32.595,36.365,39.969
39.109,37.711999999999996,35.094,32.561,36.391,40.056
39.08,37.781,35.229,32.527,36.406,40.126999999999995
39.052,37.839,35.378,32.495,36.413000000000004,40.183
39.028,37.887,35.539,32.465,36.411,40.227
39.006,37.924,35.71,32.437,36.402,40.259
38.988,37.951,35.889,32.41,36.385999999999996,40.281
38.971,37.97,36.077,32.383,36.366,40.293
38.955,37.979,36.271,32.355,36.343,40.298
38.939,37.981,36.47,32.326,36.319,40.297
38.922,37.976,36.673,32.296,36.294000000000004,40.291
38.902,37.965,36.876,32.266,36.27,40.281
38.876999999999995,37.949,37.078,32.236999999999995,36.245,40.268
38.848,37.928000000000004,37.277,32.209,36.222,40.253
38.813,37.905,37.47,32.181999999999995,36.2,40.238
38.772,37.88,37.656,32.156,36.178000000000004,40.223
38.724000000000004,37.853,37.832,32.131,36.157,40.209
38.67,37.825,37.996,32.108000000000004,36.138000000000005,40.196
38.608000000000004,37.797,38.147,32.086,36.119,40.184
38.541,37.766999999999996,38.285,32.065,36.101,40.172
38.47,37.735,38.411,32.047,36.083,40.158
38.394,37.702,38.524,32.029,36.064,40.141999999999996
38.317,37.667,38.623000000000005,32.012,36.042,40.125
38.239000000000004,37.629,38.71,31.996,36.019,40.105
38.163000000000004,37.589,38.784,31.98,35.994,40.084
38.089,37.547,38.847,31.963,35.966,40.06
38.018,37.503,38.9,31.945999999999998,35.937,40.035
37.95,37.455999999999996,38.943000000000005,31.93,35.906,40.007
37.885999999999996,37.408,38.978,31.915,35.873000000000005,39.976
37.825,37.357,39.007,31.901999999999997,35.839,39.942
37.768,37.304,39.03,31.89,35.804,39.904
37.714,37.25,39.049,31.88,35.766999999999996,39.861999999999995
37.664,37.195,39.065,31.873,35.728,39.814
37.617,37.14,39.078,31.87,35.687,39.763000000000005
37.571999999999996,37.086999999999996,39.088,31.874000000000002,35.644,39.705999999999996
37.529,37.034,39.094,31.885,35.599000000000004,39.644
37.486,36.985,39.096,31.908,35.552,39.577
37.441,36.939,39.094,31.943,35.504,39.503
37.395,36.898,39.088,31.991999999999997,35.455,39.423
37.346,36.86,39.078,32.058,35.405,39.338
37.295,36.826,39.064,32.141,35.355,39.249
37.24,36.796,39.047,32.242,35.306999999999995,39.158
37.183,36.77,39.028,32.361,35.26,39.066
37.124,36.748000000000005,39.008,32.5,35.217,38.975
37.062,36.731,38.988,32.659,35.177,38.885
37.0,36.72,38.967,32.84,35.141999999999996,38.796
36.938,36.716,38.946999999999996,33.042,35.11,38.711
36.876999999999995,36.718,38.926,33.265,35.082,38.629
36.819,36.725,38.904,33.507,35.056999999999995,38.552
36.762,36.735,38.88,33.766,35.036,38.478
36.708,36.746,38.853,34.039,35.019,38.41
36.657,36.755,38.821,34.325,35.005,38.347
36.608000000000004,36.763000000000005,38.785,34.619,34.994,38.289
36.561,36.766999999999996,38.745,34.92,34.986,38.235
36.515,36.769,38.702,35.224000000000004,34.982,38.186
36.47,36.768,38.656,35.528,34.98,38.141
36.426,36.766999999999996,38.607,35.83,34.979,38.099000000000004
36.381,36.766,38.556,36.126999999999995,34.979,38.06
36.336,36.765,38.503,36.415,34.979,38.023
36.289,36.766,38.448,36.691,34.979,37.99
36.239000000000004,36.769,38.394,36.953,34.977,37.961
36.186,36.775,38.339,37.198,34.972,37.934
36.13,36.783,38.286,37.427,34.965,37.91
36.068000000000005,36.793,38.233000000000004,37.635999999999996,34.955,37.885999999999996
36.001999999999995,36.805,38.183,37.828,34.943000000000005,37.864000000000004
35.931,36.818000000000005,38.135,38.0,34.927,37.842
35.857,36.83,38.089,38.155,34.909,37.82
35.779,36.84,38.044000000000004,38.292,34.888000000000005,37.798
35.698,36.846,38.001999999999995,38.414,34.866,37.774
35.615,36.848,37.96,38.52,34.842,37.749
35.53,36.845,37.918,38.611,34.818000000000005,37.722
35.445,36.838,37.875,38.689,34.793,37.694
35.361,36.827,37.832,38.754,34.768,37.664
35.278,36.813,37.789,38.806999999999995,34.743,37.632
35.196999999999996,36.798,37.746,38.848,34.718,37.598
35.117,36.78,37.704,38.88,34.694,37.562
35.038000000000004,36.76,37.663000000000004,38.903,34.669000000000004,37.524
34.96,36.736999999999995,37.624,38.918,34.643,37.486
34.882,36.711999999999996,37.589,38.928000000000004,34.614000000000004,37.446
34.805,36.686,37.556999999999995,38.933,34.584,37.404
34.728,36.658,37.53,38.934,34.552,37.361
34.650999999999996,36.629,37.507,38.933,34.516999999999996,37.314
34.573,36.6,37.488,38.929,34.48,37.266
34.495,36.573,37.472,38.922,34.442,37.216
34.417,36.546,37.46,38.914,34.403,37.164
34.339,36.522,37.448,38.903,34.361999999999995,37.111
34.260999999999996,36.5,37.438,38.889,34.321999999999996,37.056999999999995
34.185,36.481,37.426,38.873000000000005,34.283,37.001
34.11,36.463,37.412,38.855,34.244,36.944
34.038000000000004,36.446,37.396,38.835,34.207,36.885999999999996
33.97,36.427,37.376,38.814,34.171,36.827
33.906,36.406,37.353,38.793,34.135999999999996,36.768
33.847,36.383,37.326,38.772,34.101,36.709
33.792,36.358000000000004,37.294000000000004,38.751,34.066,36.65
33.742,36.33,37.258,38.73,34.031,36.591
33.696999999999996,36.301,37.219,38.709,33.995,36.531
33.654,36.271,37.178000000000004,38.686,33.957,36.469
33.614000000000004,36.241,37.135999999999996,38.662,33.917,36.406
33.575,36.211,37.094,38.633,33.876999999999995,36.341
33.536,36.181,37.054,38.602,33.836,36.274
33.497,36.150999999999996,37.016999999999996,38.566,33.795,36.207
33.455,36.121,36.982,38.525999999999996,33.754,36.138000000000005
33.412,36.092,36.95,38.483000000000004,33.714,36.068000000000005
33.366,36.061,36.92,38.436,33.677,35.998000000000005
33.317,36.029,36.888000000000005,38.385999999999996,33.641999999999996,35.928000000000004
33.266999999999996,35.995,36.855,38.332,33.609,35.859
33.216,35.959,36.818000000000005,38.275,33.579,35.791
33.162,35.922,36.779,38.215,33.551,35.722
33.108000000000004,35.883,36.736999999999995,38.150999999999996,33.525999999999996,35.652
33.052,35.845,36.692,38.086999999999996,33.503,35.583
32.996,35.809,36.643,38.021,33.482,35.514
32.941,35.773,36.593,37.955,33.461999999999996,35.445
32.887,35.74,36.541,37.888000000000005,33.442,35.376999999999995
32.833,35.709,36.489000000000004,37.821,33.421,35.31
32.782,35.679,36.437,37.754,33.400999999999996,35.243
32.732,35.650999999999996,36.385,37.688,33.38,35.179
32.685,35.624,36.334,37.623000000000005,33.358000000000004,35.116
32.64,35.597,36.283,37.561,33.335,35.055
32.596,35.571,36.232,37.501,33.313,34.997
32.552,35.545,36.181999999999995,37.445,33.292,34.942
32.509,35.521,36.132,37.391999999999996,33.272,34.888000000000005
