Trial 1:0back,Trial 2:2back,Trial 3:3back,Trial 4:2back,Trial 5:3back,Trial 6:0back
32.552,36.744,36.884,36.288000000000004,36.114000000000004,33.954
32.556999999999995,36.711,36.876,36.26,36.06,33.935
32.563,36.676,36.863,36.229,36.005,33.916
32.567,36.64,36.844,36.195,35.951,33.899
32.571999999999996,36.602,36.821,36.158,35.896,33.884
32.578,36.562,36.793,36.117,35.841,33.874
32.585,36.52,36.76,36.071999999999996,35.787,33.868
32.594,36.476,36.722,36.025999999999996,35.734,33.869
32.605,36.43,36.68,35.977,35.68,33.878
32.617,36.381,36.635,35.928000000000004,35.625,33.896
32.629,36.33,36.588,35.878,35.569,33.923
32.639,36.275,36.539,35.828,35.512,33.961999999999996
32.648,36.217,36.49,35.777,35.453,34.010999999999996
32.653,36.155,36.44,35.725,35.391,34.073
32.655,36.09,36.389,35.672,35.328,34.147
32.655,36.022,36.336,35.619,35.263000000000005,34.234
32.650999999999996,35.952,36.282,35.564,35.196999999999996,34.333
32.646,35.88,36.227,35.51,35.13,34.442
32.638000000000005,35.809,36.17,35.455999999999996,35.063,34.562
32.628,35.738,36.111999999999995,35.402,34.998000000000005,34.688
32.614000000000004,35.669000000000004,36.054,35.349000000000004,34.935,34.819
32.597,35.601,35.995,35.296,34.875,34.951
32.578,35.535,35.938,35.245,34.819,35.083
32.556999999999995,35.472,35.882,35.196999999999996,34.766999999999996,35.213
32.535,35.41,35.827,35.15,34.718,35.338
32.514,35.35,35.774,35.106,34.672,35.457
32.493,35.292,35.721,35.063,34.629,35.569
32.474000000000004,35.235,35.67,35.022,34.589,35.679
32.455999999999996,35.179,35.619,34.981,34.551,35.786
32.439,35.122,35.567,34.94,34.513000000000005,35.888000000000005
32.424,35.065,35.514,34.899,34.476,35.982
32.409,35.007,35.459,34.858000000000004,34.439,36.065
32.395,34.95,35.404,34.817,34.404,36.135
32.38,34.891999999999996,35.347,34.775999999999996,34.372,36.189
32.365,34.835,35.29,34.736999999999995,34.34,36.227
32.349000000000004,34.777,35.233000000000004,34.698,34.311,36.248000000000005
32.332,34.72,35.177,34.659,34.282,36.253
32.313,34.664,35.122,34.621,34.253,36.243
32.293,34.609,35.069,34.583,34.225,36.219
32.273,34.556999999999995,35.016999999999996,34.547,34.196999999999996,36.183
32.251,34.508,34.968,34.510999999999996,34.168,36.137
32.23,34.461999999999996,34.919000000000004,34.475,34.139,36.083
32.209,34.418,34.872,34.439,34.109,36.025
32.189,34.378,34.826,34.404,34.079,35.965
32.172,34.339,34.781,34.369,34.047,35.905
32.161,34.302,34.736999999999995,34.335,34.016,35.847
32.157,34.265,34.694,34.301,33.986,35.793
32.167,34.228,34.653,34.266,33.955999999999996,35.744
32.195,34.191,34.614000000000004,34.23,33.925,35.702
32.246,34.154,34.576,34.194,33.894,35.667
32.325,34.118,34.541,34.156,33.861999999999995,35.64
32.44,34.084,34.508,34.119,33.830999999999996,35.621
32.596,34.053000000000004,34.477,34.082,33.8,35.608000000000004
32.801,34.025,34.448,34.046,33.769,35.601
33.06,34.001999999999995,34.422,34.010999999999996,33.738,35.599000000000004
33.379,33.982,34.396,33.977,33.707,35.601
33.759,33.965,34.372,33.946,33.675,35.606
34.201,33.951,34.348,33.916,33.643,35.613
34.703,33.941,34.324,33.887,33.61,35.62
35.257,33.933,34.301,33.86,33.577,35.626
35.855,33.928000000000004,34.28,33.834,33.542,35.629
36.484,33.922,34.264,33.809,33.507,35.628
37.132,33.916,34.251999999999995,33.786,33.47,35.625
37.784,33.909,34.244,33.764,33.433,35.616
38.425,33.9,34.238,33.744,33.397,35.602
39.041,33.889,34.231,33.726,33.361999999999995,35.582
39.62,33.876,34.221,33.709,33.33,35.558
40.150999999999996,33.86,34.205999999999996,33.692,33.301,35.53
40.626,33.84,34.185,33.675,33.277,35.498000000000005
41.038999999999994,33.817,34.157,33.657,33.259,35.464
41.387,33.791,34.123000000000005,33.639,33.249,35.427
41.668,33.763000000000005,34.084,33.619,33.246,35.389
41.885,33.735,34.041,33.598,33.254,35.351
42.038999999999994,33.705999999999996,33.993,33.575,33.272,35.314
42.136,33.676,33.944,33.551,33.304,35.278
42.178999999999995,33.647,33.893,33.525999999999996,33.352,35.244
42.175,33.617,33.842,33.499,33.418,35.213
42.13,33.586,33.792,33.471,33.504,35.186
42.051,33.554,33.744,33.443000000000005,33.613,35.163000000000004
41.943999999999996,33.52,33.7,33.416,33.748000000000005,35.145
41.816,33.484,33.66,33.389,33.908,35.131
41.67,33.446,33.624,33.363,34.094,35.122
41.511,33.407,33.592,33.338,34.305,35.116
41.342,33.367,33.562,33.314,34.539,35.113
41.168,33.326,33.534,33.292,34.795,35.111999999999995
40.993,33.285,33.508,33.272,35.07,35.113
40.82,33.245,33.482,33.253,35.361,35.115
40.652,33.205999999999996,33.455999999999996,33.235,35.663000000000004,35.117
40.489000000000004,33.169000000000004,33.43,33.217,35.971,35.121
40.334,33.135,33.405,33.201,36.282,35.125
40.185,33.103,33.381,33.184,36.591,35.129
40.044000000000004,33.076,33.358000000000004,33.167,36.894,35.132
39.91,33.053000000000004,33.335,33.148,37.188,35.135999999999996
39.784,33.034,33.313,33.129,37.47,35.139
39.664,33.02,33.293,33.109,37.735,35.14
39.551,33.010999999999996,33.275,33.089,37.982,35.141
39.443000000000005,33.012,33.262,33.07,38.207,35.14
39.339,33.023,33.256,33.051,38.409,35.137
39.238,33.051,33.258,33.032,38.586,35.132
39.141,33.098,33.274,33.013000000000005,38.74,35.126
39.045,33.17,33.306,32.994,38.871,35.119
38.949,33.273,33.36,32.974000000000004,38.978,35.109
38.853,33.411,33.437,32.954,39.062,35.098
38.756,33.59,33.542,32.934,39.125,35.085
38.656,33.812,33.677,32.915,39.169000000000004,35.07
38.551,34.077,33.843,32.897,39.196999999999996,35.053000000000004
38.441,34.383,34.042,32.878,39.209,35.035
38.326,34.727,34.273,32.86,39.21,35.016
38.204,35.103,34.534,32.842,39.201,34.996
38.075,35.503,34.82,32.823,39.183,34.977
37.94,35.92,35.128,32.805,39.158,34.959
37.799,36.344,35.452,32.786,39.126999999999995,34.942
37.654,36.766999999999996,35.787,32.766999999999996,39.092,34.927
37.506,37.181,36.128,32.748000000000005,39.053000000000004,34.914
37.358000000000004,37.577,36.47,32.729,39.010999999999996,34.902
37.211,37.951,36.808,32.713,38.967,34.891
37.068000000000005,38.297,37.137,32.699,38.924,34.88
36.931,38.611,37.453,32.689,38.882,34.87
36.8,38.891,37.751,32.685,38.843,34.859
36.677,39.133,38.028,32.687,38.805,34.847
36.563,39.336,38.281,32.699,38.771,34.835
36.459,39.501,38.507,32.723,38.739000000000004,34.821999999999996
36.366,39.629,38.704,32.76,38.711,34.806999999999995
36.286,39.723,38.871,32.814,38.684,34.792
36.219,39.788000000000004,39.009,32.887,38.659,34.775999999999996
36.164,39.826,39.119,32.979,38.634,34.76
36.121,39.841,39.204,33.093,38.607,34.742
36.09,39.836,39.265,33.229,38.577,34.724000000000004
36.069,39.816,39.305,33.387,38.544000000000004,34.705999999999996
36.058,39.782,39.327,33.564,38.505,34.687
36.054,39.738,39.333,33.76,38.459,34.668
36.058,39.688,39.328,33.972,38.406,34.649
36.068000000000005,39.633,39.313,34.198,38.347,34.631
36.084,39.575,39.291,34.436,38.281,34.614000000000004
36.104,39.516999999999996,39.264,34.681999999999995,38.21,34.599000000000004
36.126999999999995,39.461,39.234,34.933,38.135,34.585
36.150999999999996,39.407,39.201,35.184,38.055,34.573
36.175,39.357,39.167,35.431999999999995,37.973,34.563
36.196999999999996,39.311,39.133,35.674,37.889,34.554
36.215,39.269,39.098,35.906,37.804,34.548
36.228,39.231,39.062,36.126,37.72,34.542
36.236,39.196999999999996,39.025999999999996,36.332,37.638000000000005,34.539
36.239000000000004,39.168,38.99,36.522,37.556999999999995,34.536
36.236,39.143,38.952,36.694,37.48,34.535
36.227,39.123000000000005,38.915,36.848,37.407,34.534
36.211,39.107,38.879,36.982,37.339,34.534
36.188,39.094,38.845,37.095,37.277,34.535
36.159,39.084,38.814,37.189,37.221,34.534
36.123000000000005,39.076,38.785,37.264,37.171,34.533
36.080999999999996,39.071,38.76,37.321,37.126999999999995,34.53
36.034,39.066,38.738,37.364000000000004,37.089,34.524
35.983000000000004,39.06,38.719,37.391999999999996,37.058,34.515
35.929,39.053000000000004,38.701,37.41,37.033,34.501999999999995
35.872,39.041,38.684,37.417,37.014,34.486
35.812,39.023,38.664,37.417,36.999,34.468
35.75,38.999,38.641,37.411,36.985,34.449
35.684,38.966,38.611999999999995,37.400999999999996,36.971,34.429
35.616,38.923,38.577,37.387,36.955,34.41
35.545,38.871,38.534,37.371,36.936,34.391999999999996
35.471,38.81,38.482,37.356,36.915,34.374
35.393,38.741,38.421,37.341,36.89,34.357
35.312,38.664,38.349000000000004,37.328,36.861999999999995,34.343
35.229,38.580999999999996,38.262,37.317,36.830999999999996,34.330999999999996
35.143,38.492,38.16,37.308,36.796,34.321
35.055,38.400999999999996,38.045,37.301,36.759,34.314
34.965,38.308,37.918,37.297,36.72,34.309
34.873000000000005,38.215,37.786,37.296,36.68,34.306999999999995
34.78,38.123000000000005,37.653,37.295,36.639,34.306
34.685,38.033,37.525,37.296,36.595,34.306
34.589,37.946,37.407,37.296,36.55,34.305
34.494,37.864000000000004,37.303000000000004,37.297,36.501,34.304
34.399,37.787,37.214,37.297,36.45,34.303000000000004
34.306999999999995,37.717,37.143,37.295,36.396,34.3
34.217,37.655,37.089,37.291,36.34,34.297
34.131,37.599000000000004,37.052,37.283,36.283,34.293
34.05,37.552,37.03,37.273,36.226,34.287
33.973,37.512,37.021,37.259,36.169000000000004,34.279
33.900999999999996,37.478,37.023,37.242,36.114000000000004,34.27
33.833,37.451,37.034,37.222,36.059,34.259
33.769,37.428000000000004,37.051,37.198,36.006,34.249
33.707,37.408,37.07,37.169000000000004,35.954,34.238
33.647,37.39,37.09,37.135999999999996,35.900999999999996,34.227
33.588,37.372,37.108000000000004,37.097,35.847,34.218
33.53,37.355,37.122,37.053000000000004,35.79,34.209
33.472,37.338,37.128,37.004,35.73,34.201
33.416,37.321,37.126999999999995,36.952,35.667,34.192
33.36,37.305,37.117,36.897,35.6,34.181999999999995
33.306999999999995,37.288000000000004,37.1,36.841,35.53,34.172
33.254,37.272,37.076,36.783,35.458,34.16
33.204,37.256,37.046,36.725,35.385999999999996,34.148
33.155,37.24,37.010999999999996,36.667,35.316,34.135
33.107,37.222,36.971,36.61,35.248000000000005,34.121
33.06,37.202,36.927,36.554,35.184,34.108000000000004
33.014,37.18,36.879,36.5,35.124,34.096
32.971,37.154,36.829,36.449,35.069,34.086
32.931,37.123000000000005,36.777,36.402,35.016999999999996,34.078
32.894,37.088,36.724000000000004,36.36,34.967,34.07
32.861,37.049,36.671,36.323,34.917,34.063
32.830999999999996,37.005,36.618,36.291,34.867,34.055
32.803000000000004,36.955999999999996,36.566,36.265,34.814,34.047
32.775999999999996,36.902,36.514,36.244,34.759,34.037
32.75,36.843,36.463,36.228,34.702,34.027
32.727,36.78,36.413000000000004,36.214,34.644,34.016
32.705,36.714,36.361999999999995,36.203,34.585,34.005
32.687,36.644,36.31,36.191,34.527,33.993
32.672,36.571,36.256,36.18,34.471,33.982
32.659,36.495,36.199,36.168,34.418,33.972
32.65,36.416,36.14,36.155,34.369,33.961
32.641,36.336,36.078,36.141,34.324,33.95
32.632,36.257,36.012,36.125,34.282,33.939
32.622,36.177,35.942,36.107,34.243,33.931
32.611999999999995,36.099000000000004,35.868,36.086999999999996,34.205999999999996,33.925
32.602,36.022,35.791,36.065,34.168,33.923
32.591,35.946,35.709,36.04,34.13,33.926
32.582,35.874,35.626,36.012,34.091,33.935
32.576,35.804,35.541,35.982,34.051,33.952
32.571,35.736999999999995,35.455,35.95,34.01,33.98
32.568000000000005,35.673,35.371,35.916,33.968,34.019
32.565,35.611,35.288000000000004,35.88,33.925,34.069
32.562,35.549,35.209,35.844,33.883,34.133
32.556,35.489000000000004,35.132,35.806,33.843,34.209
32.548,35.428000000000004,35.056999999999995,35.769,33.803000000000004,34.297
32.537,35.366,34.986,35.731,33.765,34.397
32.524,35.304,34.918,35.694,33.728,34.508
32.51,35.241,34.852,35.656,33.691,34.629
32.496,35.177,34.79,35.618,33.654,34.759
32.485,35.113,34.73,35.58,33.618,34.896
32.476,35.049,34.672,35.542,33.584,35.038000000000004
32.47,34.984,34.616,35.504,33.551,35.181
32.467,34.92,34.563,35.465,33.518,35.325
32.465,34.855,34.512,35.426,33.485,35.466
32.465,34.791,34.463,35.385,33.452,35.602
32.466,34.728,34.416,35.344,33.42,35.732
32.466,34.667,34.371,35.301,33.388000000000005,35.853
32.465,34.608000000000004,34.327,35.256,33.356,35.965
32.464,34.551,34.285,35.211,33.323,36.068000000000005
32.461,34.495,34.245,35.164,33.29,36.159
32.455999999999996,34.442,34.205,35.117,33.259,36.24
32.446999999999996,34.389,34.166,35.068000000000005,33.23,36.308
32.435,34.338,34.128,35.018,33.202,36.363
32.42,34.289,34.092,34.966,33.176,36.406
32.399,34.241,34.059,34.915,33.150999999999996,36.437
32.375,34.194,34.028,34.864000000000004,33.128,36.458
32.348,34.149,34.0,34.815,33.106,36.468
32.32,34.107,33.975,34.766999999999996,33.083,36.471
32.291,34.067,33.952,34.722,33.06,36.467
32.262,34.03,33.931,34.679,33.035,36.457
32.235,33.997,33.912,34.64,33.008,36.443000000000005
32.205999999999996,33.967,33.895,34.604,32.98,36.425
32.178000000000004,33.941,33.876999999999995,34.571,32.951,36.406
32.149,33.916,33.86,34.541,32.92,36.385
32.119,33.893,33.843,34.513000000000005,32.89,36.364000000000004
32.09,33.87,33.825,34.488,32.859,36.343
32.062,33.849000000000004,33.805,34.463,32.83,36.325
32.036,33.827,33.782,34.439,32.803000000000004,36.309
32.013000000000005,33.805,33.756,34.416,32.78,36.295
31.991999999999997,33.782,33.727,34.391999999999996,32.76,36.285
31.971999999999998,33.757,33.695,34.368,32.747,36.277
31.955,33.73,33.661,34.344,32.743,36.273
31.939,33.701,33.625,34.32,32.751,36.27
31.925,33.67,33.588,34.294000000000004,32.773,36.266999999999996
31.915,33.639,33.552,34.268,32.813,36.266
31.91,33.607,33.516,34.24,32.873000000000005,36.264
31.912,33.576,33.481,34.211,32.955,36.262
31.924,33.545,33.448,34.18,33.063,36.259
31.951,33.515,33.415,34.148,33.198,36.256
31.997,33.486999999999995,33.383,34.115,33.36,36.254
32.071,33.459,33.351,34.082,33.55,36.251
32.178000000000004,33.433,33.321,34.049,33.764,36.25
32.327,33.406,33.292,34.016999999999996,34.001,36.249
32.525,33.378,33.263000000000005,33.986,34.258,36.247
32.778,33.348,33.234,33.957,34.532,36.244
33.092,33.317,33.205,33.928000000000004,34.82,36.24
33.469,33.282,33.174,33.900999999999996,35.118,36.232
33.907,33.245,33.141999999999996,33.875,35.42,36.222
34.402,33.205999999999996,33.109,33.851,35.722,36.208
34.945,33.164,33.074,33.826,36.02,36.192
35.525999999999996,33.121,33.04,33.802,36.308,36.173
36.132,33.078,33.005,33.778,36.585,36.152
36.75,33.034,32.971,33.754,36.845,36.129
37.366,32.992,32.94,33.73,37.086999999999996,36.104
37.967,32.949,32.911,33.705999999999996,37.306999999999995,36.079
38.539,32.908,32.885,33.681,37.503,36.053000000000004
39.071999999999996,32.868,32.863,33.656,37.674,36.025999999999996
39.556999999999995,32.829,32.846,33.629,37.819,35.999
39.986,32.791,32.835,33.602,37.939,35.973
40.354,32.754,32.830999999999996,33.573,38.034,35.948
40.657,32.716,32.836999999999996,33.545,38.104,35.924
40.896,32.678000000000004,32.854,33.518,38.152,35.904
41.071000000000005,32.64,32.888000000000005,33.492,38.179,35.885999999999996
41.185,32.602,32.942,33.468,38.189,35.87
41.24,32.565,33.02,33.446,38.184,35.858000000000004
41.244,32.532,33.125,33.426,38.17,35.849000000000004
41.203,32.503,33.260999999999996,33.408,38.147,35.843
41.123000000000005,32.48,33.43,33.39,38.118,35.841
41.012,32.468,33.634,33.374,38.086,35.842
40.876999999999995,32.47,33.87,33.358000000000004,38.051,35.844
40.723,32.493,34.135999999999996,33.343,38.016999999999996,35.848
40.556,32.543,34.431,33.327,37.983000000000004,35.852
40.38,32.626,34.75,33.311,37.951,35.856
40.201,32.749,35.089,33.295,37.922,35.859
40.02,32.915,35.441,33.279,37.898,35.86
39.843,33.129,35.801,33.265,37.876,35.86
39.672,33.391,36.164,33.251999999999995,37.858000000000004,35.856
39.507,33.702,36.523,33.242,37.84,35.85
39.349000000000004,34.058,36.874,33.236,37.821,35.842
39.2,34.454,37.211,33.236999999999995,37.801,35.830999999999996
39.059,34.881,37.53,33.248000000000005,37.778,35.819
38.926,35.332,37.827,33.272,37.751999999999995,35.805
38.802,35.796,38.102,33.31,37.721,35.789
38.685,36.266999999999996,38.353,33.366,37.685,35.772
38.574,36.734,38.577,33.44,37.643,35.755
38.469,37.192,38.773,33.532,37.597,35.736
38.369,37.632,38.942,33.643,37.547,35.718
38.272,38.049,39.083,33.773,37.494,35.698
38.179,38.437,39.198,33.922,37.438,35.679
38.088,38.792,39.287,34.089,37.379,35.661
38.0,39.11,39.352,34.272,37.317,35.643
37.913000000000004,39.39,39.397,34.471,37.253,35.626999999999995
37.827,39.631,39.422,34.681,37.187,35.611
37.739000000000004,39.833,39.431,34.900999999999996,37.118,35.596
37.649,39.997,39.428000000000004,35.128,37.047,35.582
37.555,40.125,39.415,35.357,36.975,35.569
37.455999999999996,40.22,39.397,35.586,36.903,35.556
37.354,40.286,39.375,35.81,36.830999999999996,35.542
37.247,40.326,39.351,36.025999999999996,36.762,35.529
37.137,40.342,39.327,36.231,36.694,35.516
37.025,40.34,39.305,36.424,36.63,35.501999999999995
36.911,40.321999999999996,39.286,36.601,36.569,35.486999999999995
36.796,40.291,39.27,36.762,36.513000000000005,35.472
36.681999999999995,40.251,39.258,36.905,36.461999999999996,35.455
36.571,40.204,39.248000000000005,37.028,36.417,35.437
36.461999999999996,40.153,39.24,37.133,36.376999999999995,35.418
36.358000000000004,40.099000000000004,39.233000000000004,37.219,36.343,35.397
36.260999999999996,40.044000000000004,39.228,37.287,36.313,35.373000000000005
36.17,39.989000000000004,39.223,37.34,36.288000000000004,35.347
36.086999999999996,39.936,39.218,37.379,36.266999999999996,35.319
36.013000000000005,39.885,39.211999999999996,37.408,36.25,35.289
35.948,39.836999999999996,39.204,37.425,36.236999999999995,35.256
35.893,39.792,39.193000000000005,37.434,36.226,35.22
35.849000000000004,39.75,39.18,37.435,36.216,35.181999999999995
35.814,39.713,39.163000000000004,37.43,36.205999999999996,35.141999999999996
35.789,39.681,39.143,37.42,36.195,35.102
35.773,39.653,39.12,37.405,36.184,35.064
35.765,39.63,39.094,37.389,36.171,35.028
35.765,39.61,39.064,37.371,36.155,34.996
35.773,39.592,39.029,37.356,36.135999999999996,34.969
35.787,39.571,38.988,37.343,36.114000000000004,34.946
35.805,39.544000000000004,38.94,37.333,36.088,34.927
35.827,39.509,38.885999999999996,37.326,36.058,34.912
35.851,39.468,38.825,37.321999999999996,36.025999999999996,34.900999999999996
35.876,39.422,38.757,37.319,35.99,34.891999999999996
35.902,39.374,38.684,37.317,35.951,34.885
35.928000000000004,39.323,38.606,37.314,35.909,34.88
35.951,39.272,38.525999999999996,37.309,35.865,34.876
35.97,39.22,38.445,37.302,35.818000000000005,34.873000000000005
35.984,39.168,38.361999999999995,37.292,35.77,34.869
35.993,39.114000000000004,38.277,37.277,35.721,34.865
35.996,39.06,38.192,37.258,35.671,34.86
35.993,39.003,38.106,37.233000000000004,35.62,34.855
35.984,38.942,38.022,37.205,35.568000000000005,34.848
35.971,38.876999999999995,37.94,37.174,35.514,34.841
35.952,38.806999999999995,37.861,37.14,35.46,34.830999999999996
35.928000000000004,38.73,37.786,37.105,35.404,34.821999999999996
35.899,38.647,37.713,37.069,35.348,34.811
35.866,38.559,37.643,37.031,35.291,34.8
35.829,38.467,37.578,36.992,35.234,34.787
35.788000000000004,38.371,37.518,36.952,35.176,34.773
35.744,38.274,37.461999999999996,36.91,35.117,34.758
35.696,38.177,37.41,36.866,35.052,34.742
35.646,38.083,37.361,36.82,34.979,34.725
35.594,37.993,37.314,36.773,34.899,34.707
35.541,37.909,37.272,36.726,34.815,34.69
35.486999999999995,37.833,37.234,36.68,34.73,34.673
35.431,37.765,37.198,36.634,34.646,34.658
35.375,37.705999999999996,37.164,36.59,34.566,34.645
35.316,37.655,37.131,36.546,34.491,34.634
35.256,37.611999999999995,37.098,36.501999999999995,34.421,34.625
35.193000000000005,37.577,37.064,36.46,34.358000000000004,34.619
35.128,37.547,37.03,36.42,34.301,34.613
35.063,37.523,36.994,36.382,34.25,34.609
34.997,37.504,36.955,36.347,34.205,34.607
34.931999999999995,37.489000000000004,36.914,36.315,34.166,34.606
34.867,37.476,36.871,36.286,34.131,34.605
34.803000000000004,37.465,36.826,36.26,34.1,34.604
34.74,37.455,36.778,36.235,34.07,34.603
34.676,37.444,36.729,36.213,34.041,34.602
34.611,37.431,36.678000000000004,36.193000000000005,34.01,34.6
34.546,37.414,36.625,36.174,33.976,34.598
34.479,37.391,36.571,36.156,33.939,34.594
34.412,37.361999999999995,36.516,36.139,33.897,34.589
34.345,37.325,36.461,36.122,33.852,34.583
34.28,37.281,36.405,36.104,33.804,34.576
34.216,37.229,36.347,36.085,33.754,34.568000000000005
34.154,37.171,36.288000000000004,36.063,33.704,34.556999999999995
34.095,37.105,36.227,36.038000000000004,33.655,34.544000000000004
34.038000000000004,37.034,36.164,36.010999999999996,33.608000000000004,34.529
33.984,36.96,36.098,35.981,33.565,34.512
33.933,36.885,36.03,35.949,33.525999999999996,34.493
33.884,36.809,35.959,35.914,33.491,34.473
33.838,36.733000000000004,35.887,35.878,33.46,34.452
33.794000000000004,36.659,35.814,35.841,33.433,34.431999999999995
33.754,36.586999999999996,35.742,35.804,33.409,34.412
33.716,36.516999999999996,35.669000000000004,35.766,33.388000000000005,34.394
33.681,36.45,35.596,35.728,33.368,34.376999999999995
33.647,36.385999999999996,35.522,35.689,33.348,34.361
33.615,36.323,35.446999999999996,35.648,33.327,34.348
33.582,36.26,35.373000000000005,35.605,33.305,34.335
33.549,36.196999999999996,35.3,35.561,33.282,34.323
33.515,36.133,35.228,35.516,33.259,34.31
33.48,36.067,35.157,35.47,33.236,34.297
33.444,35.998000000000005,35.088,35.424,33.211999999999996,34.284
33.409,35.926,35.02,35.379,33.186,34.272
33.375,35.85,34.955,35.335,33.16,34.259
33.343,35.769,34.891,35.291,33.132,34.246
33.312,35.683,34.83,35.249,33.104,34.231
33.284,35.593,34.771,35.208,33.076,34.215
33.258,35.5,34.715,35.167,33.046,34.198
33.234,35.406,34.662,35.128,33.016,34.179
33.21,35.313,34.611,35.088,32.986,34.161
33.186,35.223,34.562,35.05,32.957,34.141999999999996
33.164,35.137,34.515,35.012,32.929,34.124
33.143,35.056999999999995,34.468,34.974000000000004,32.900999999999996,34.107
33.124,34.983000000000004,34.423,34.938,32.874,34.093
33.109,34.914,34.379,34.902,32.846,34.080999999999996
33.097,34.85,34.335,34.867,32.817,34.07
33.089,34.791,34.292,34.833,32.788000000000004,34.062
33.083,34.734,34.248000000000005,34.799,32.758,34.054
33.08,34.68,34.204,34.764,32.728,34.048
33.077,34.626,34.16,34.729,32.698,34.043
33.075,34.573,34.115,34.692,32.668,34.04
33.074,34.52,34.071,34.655,32.64,34.038000000000004
33.074,34.467,34.025999999999996,34.616,32.613,34.041
33.074,34.415,33.982,34.577,32.588,34.047
33.074,34.363,33.937,34.536,32.564,34.06
33.075,34.311,33.893,34.495,32.541,34.079
33.074,34.259,33.85,34.453,32.519,34.106
33.074,34.207,33.806,34.411,32.497,34.141999999999996
33.073,34.155,33.763000000000005,34.368,32.475,34.188
33.07,34.105,33.72,34.325,32.453,34.244
33.066,34.056,33.677,34.283,32.431,34.311
33.061,34.01,33.635999999999996,34.242,32.408,34.389
33.056,33.965,33.595,34.201,32.385999999999996,34.48
33.05,33.923,33.554,34.163000000000004,32.361999999999995,34.582
33.042,33.882,33.516,34.125,32.338,34.696999999999996
33.033,33.843,33.479,34.089,32.313,34.821999999999996
33.021,33.805,33.444,34.054,32.287,34.954
33.006,33.766999999999996,33.411,34.019,32.260999999999996,35.093
32.988,33.73,33.381,33.985,32.236,35.236999999999995
32.967,33.692,33.353,33.952,32.215,35.383
32.944,33.653,33.333,33.922,32.2,35.529
32.92,33.615,33.321,33.893,32.195,35.674
32.895,33.577,33.319,33.867,32.205,35.816
32.87,33.539,33.323,33.844,32.233000000000004,35.952
32.845,33.501999999999995,33.332,33.824,32.283,36.08
32.819,33.465,33.342,33.805,32.358000000000004,36.2
32.792,33.427,33.35,33.789,32.461,36.311
32.764,33.389,33.354,33.773,32.591,36.411
32.736,33.349000000000004,33.351,33.757,32.749,36.499
32.707,33.308,33.34,33.742,32.931,36.576
32.679,33.264,33.32,33.726,33.135999999999996,36.641
32.65,33.219,33.29,33.709,33.361,36.694
32.62,33.173,33.251,33.691,33.6,36.736
32.591,33.128,33.203,33.672,33.853,36.768
32.563,33.083,33.147,33.650999999999996,34.114000000000004,36.79
32.535,33.041,33.085,33.63,34.38,36.803000000000004
32.508,33.001,33.019,33.608000000000004,34.647,36.809
32.483000000000004,32.961999999999996,32.951,33.585,34.913000000000004,36.806999999999995
32.46,32.925,32.883,33.563,35.173,36.801
32.44,32.89,32.818000000000005,33.54,35.425,36.79
32.425,32.858000000000004,32.757,33.516999999999996,35.667,36.775
32.419000000000004,32.828,32.701,33.494,35.896,36.759
32.424,32.801,32.653,33.47,36.108000000000004,36.742
32.446,32.777,32.611999999999995,33.446,36.303000000000004,36.724000000000004
32.488,32.756,32.580999999999996,33.422,36.478,36.705999999999996
32.558,32.736999999999995,32.562,33.396,36.631,36.69
32.662,32.721,32.556,33.37,36.762,36.676
32.806999999999995,32.711,32.567,33.345,36.869,36.666
32.997,32.709,32.598,33.319,36.955,36.657
33.236999999999995,32.718,32.653,33.295,37.02,36.650999999999996
33.527,32.743,32.734,33.271,37.066,36.647
33.865,32.79,32.845,33.25,37.094,36.645
34.25,32.864000000000004,32.988,33.231,37.107,36.646
34.674,32.97,33.162,33.214,37.106,36.649
35.132,33.114000000000004,33.369,33.2,37.094,36.653
35.614000000000004,33.3,33.607,33.188,37.073,36.657
36.11,33.53,33.874,33.179,37.045,36.662
36.608000000000004,33.804,34.167,33.171,37.01,36.667
37.097,34.12,34.48,33.165,36.971,36.671
37.567,34.473,34.809,33.161,36.929,36.674
38.008,34.858000000000004,35.147,33.16,36.883,36.675
38.412,35.266999999999996,35.491,33.163000000000004,36.836999999999996,36.673
38.773,35.694,35.836,33.174,36.792,36.67
39.088,36.128,36.175,33.193000000000005,36.749,36.666
39.354,36.561,36.505,33.223,36.707,36.66
39.569,36.985,36.821,33.266,36.669000000000004,36.653
39.733000000000004,37.393,37.119,33.325,36.634,36.646
39.849000000000004,37.778,37.396,33.400999999999996,36.603,36.639
39.918,38.135,37.650999999999996,33.496,36.575,36.629
39.945,38.46,37.881,33.611999999999995,36.548,36.618
39.934,38.751,38.086999999999996,33.75,36.52,36.604
39.889,39.005,38.266,33.909,36.491,36.588
39.814,39.222,38.419000000000004,34.088,36.459,36.569
39.714,39.403,38.549,34.285,36.424,36.547
39.594,39.55,38.654,34.498000000000005,36.385,36.523
39.46,39.665,38.736999999999995,34.724000000000004,36.342,36.497
39.315,39.75,38.8,34.96,36.294000000000004,36.469
39.165,39.808,38.843,35.203,36.242,36.442
39.012,39.843,38.871,35.45,36.187,36.415
38.859,39.857,38.884,35.696999999999996,36.129,36.39
38.709,39.855,38.887,35.941,36.071,36.366
38.563,39.839,38.882,36.177,36.010999999999996,36.345
38.421,39.812,38.872,36.400999999999996,35.951,36.325
38.285,39.777,38.858000000000004,36.611,35.891999999999996,36.306
38.154,39.735,38.842,36.803000000000004,35.834,36.289
38.029,39.689,38.825,36.974000000000004,35.775999999999996,36.273
37.91,39.638000000000005,38.806999999999995,37.126,35.72,36.26
37.799,39.586,38.792,37.256,35.664,36.25
37.693000000000005,39.532,38.777,37.367,35.61,36.241
37.593,39.478,38.764,37.46,35.555,36.235
37.498000000000005,39.424,38.751,37.536,35.501999999999995,36.229
37.406,39.373000000000005,38.736999999999995,37.596,35.452,36.225
37.315,39.324,38.724000000000004,37.641999999999996,35.404,36.221
37.225,39.279,38.711,37.674,35.361,36.216
37.135999999999996,39.236999999999995,38.7,37.693000000000005,35.323,36.211
37.048,39.198,38.689,37.702,35.289,36.205999999999996
36.96,39.162,38.678000000000004,37.7,35.26,36.199
36.871,39.128,38.666,37.692,35.236,36.192
36.783,39.095,38.653,37.678000000000004,35.217,36.184
36.693000000000005,39.062,38.639,37.657,35.203,36.176
36.602,39.027,38.622,37.625,35.192,36.166
36.51,38.991,38.603,37.584,35.184,36.157
36.416,38.951,38.58,37.536,35.177,36.147
36.32,38.908,38.552,37.484,35.17,36.135999999999996
36.222,38.861,38.519,37.431,35.163000000000004,36.124
36.124,38.809,38.48,37.383,35.154,36.114000000000004
36.025999999999996,38.751999999999995,38.435,37.341,35.144,36.103
35.929,38.689,38.383,37.308,35.13,36.092
35.833,38.619,38.324,37.284,35.111999999999995,36.08
35.741,38.542,38.257,37.269,35.089,36.067
35.653,38.458,38.183,37.263000000000005,35.062,36.054
35.571,38.367,38.106,37.264,35.032,36.04
35.495,38.268,38.027,37.271,34.999,36.024
35.427,38.164,37.949,37.281,34.964,36.007
35.367,38.056,37.872,37.294000000000004,34.926,35.988
35.316,37.944,37.798,37.306999999999995,34.885999999999996,35.967
35.273,37.830999999999996,37.724000000000004,37.318000000000005,34.845,35.946
35.241,37.718,37.652,37.326,34.804,35.923
35.219,37.605,37.579,37.327,34.764,35.898
35.205999999999996,37.494,37.507,37.323,34.724000000000004,35.872
35.202,37.385999999999996,37.437,37.311,34.687,35.846
35.205,37.283,37.368,37.291,34.65,35.818000000000005
35.215,37.186,37.301,37.262,34.615,35.789
35.232,37.096,37.235,37.225,34.580999999999996,35.758
35.254,37.013000000000005,37.17,37.181999999999995,34.546,35.727
35.282,36.939,37.107,37.133,34.51,35.696
35.313,36.874,37.045,37.079,34.471,35.665
35.346,36.819,36.986,37.021,34.428000000000004,35.635
35.381,36.773,36.931,36.961999999999996,34.381,35.608000000000004
35.416,36.738,36.879,36.900999999999996,34.329,35.583
35.45,36.711999999999996,36.832,36.841,34.273,35.562
35.481,36.693000000000005,36.789,36.781,34.214,35.543
35.509,36.681999999999995,36.751999999999995,36.723,34.152,35.527
35.533,36.677,36.719,36.667,34.088,35.514
35.554,36.676,36.691,36.615,34.022,35.501999999999995
35.57,36.679,36.665,36.567,33.955999999999996,35.492
35.580999999999996,36.683,36.641,36.524,33.889,35.483000000000004
35.586999999999996,36.685,36.616,36.486,33.824,35.474000000000004
35.586999999999996,36.685,36.592,36.452,33.759,35.466
35.580999999999996,36.68,36.567,36.424,33.695,35.458
35.569,36.668,36.541,36.399,33.633,35.446
35.55,36.649,36.515,36.378,33.574,35.429
35.525,36.623000000000005,36.486,36.361,33.516999999999996,35.407
35.495,36.59,36.455999999999996,36.346,33.463,35.38
35.463,36.553000000000004,36.424,36.333,33.412,35.349000000000004
35.427,36.51,36.39,36.321999999999996,33.364000000000004,35.316
35.389,36.463,36.353,36.312,33.32,35.282
35.349000000000004,36.41,36.313,36.301,33.279,35.247
35.306999999999995,36.354,36.269,36.289,33.242,35.213
35.260999999999996,36.293,36.222,36.275999999999996,33.208,35.181
35.211999999999996,36.229,36.172,36.262,33.178000000000004,35.152
35.159,36.162,36.118,36.246,33.149,35.124
35.102,36.095,36.059,36.228,33.121,35.099000000000004
35.044000000000004,36.025,35.995,36.207,33.092,35.077
34.983000000000004,35.955,35.928000000000004,36.183,33.06,35.056999999999995
34.922,35.885,35.858000000000004,36.155,33.028,35.039
34.859,35.814,35.786,36.124,32.993,35.023
34.795,35.742,35.713,36.091,32.957,35.007
34.73,35.669000000000004,35.64,36.059,32.92,34.993
34.663000000000004,35.594,35.567,36.03,32.882,34.979
34.595,35.516999999999996,35.494,36.005,32.844,34.965
34.525,35.436,35.421,35.983000000000004,32.806,34.952
34.454,35.352,35.35,35.963,32.771,34.939
34.382,35.265,35.279,35.944,32.736999999999995,34.927
34.311,35.174,35.21,35.924,32.705999999999996,34.915
34.24,35.08,35.141,35.900999999999996,32.678000000000004,34.902
34.17,34.983000000000004,35.075,35.873000000000005,32.650999999999996,34.889
34.102,34.884,35.01,35.841,32.626999999999995,34.874
34.036,34.785,34.946,35.803000000000004,32.605,34.86
33.972,34.685,34.884,35.759,32.584,34.844
33.91,34.586999999999996,34.823,35.711,32.566,34.828
33.85,34.49,34.763000000000005,35.658,32.55,34.811
33.791,34.397,34.704,35.601,32.536,34.793
33.734,34.308,34.646,35.54,32.524,34.775
33.678000000000004,34.223,34.588,35.476,32.510999999999996,34.756
33.623000000000005,34.141999999999996,34.529,35.409,32.498000000000005,34.738
33.57,34.066,34.471,35.341,32.482,34.72
33.519,33.994,34.412,35.272,32.465,34.701
33.469,33.926,34.354,35.203,32.444,34.68
33.422,33.863,34.296,35.135,32.422,34.659
33.376999999999995,33.803000000000004,34.239000000000004,35.07,32.397,34.635999999999996
33.334,33.746,34.183,35.007,32.37,34.611999999999995
33.292,33.691,34.128,34.948,32.341,34.588
33.251,33.638000000000005,34.076,34.891999999999996,32.312,34.566
33.21,33.586,34.025,34.84,32.282,34.544000000000004
33.169000000000004,33.536,33.977,34.792,32.251,34.524
33.129,33.486999999999995,33.931999999999995,34.747,32.22,34.505
33.09,33.44,33.889,34.705999999999996,32.189,34.488
33.054,33.396,33.847,34.667,32.159,34.472
33.021,33.354,33.806999999999995,34.632,32.131,34.457
32.991,33.314,33.766999999999996,34.598,32.104,34.444
32.963,33.275999999999996,33.729,34.565,32.08,34.431999999999995
32.936,33.241,33.692,34.534,32.056999999999995,34.422
32.91,33.207,33.657,34.503,32.034,34.412
32.885999999999996,33.174,33.626,34.471,32.010999999999996,34.403
32.864000000000004,33.141,33.597,34.439,31.987,34.395
32.845,33.109,33.57,34.406,31.961,34.387
32.83,33.078,33.545,34.374,31.933000000000003,34.379
32.818000000000005,33.046,33.522,34.343,31.904,34.371
32.81,33.012,33.499,34.312,31.872,34.361
32.804,32.977,33.476,34.282,31.838,34.351
32.799,32.941,33.454,34.251999999999995,31.802,34.34
32.794000000000004,32.904,33.431999999999995,34.221,31.765,34.327
32.789,32.865,33.409,34.19,31.728,34.313
32.783,32.827,33.387,34.159,31.688000000000002,34.297
32.775999999999996,32.79,33.363,34.129,31.649,34.282
32.769,32.751999999999995,33.339,34.098,31.609,34.266
32.763000000000005,32.715,33.314,34.067,31.57,34.249
32.756,32.676,33.288000000000004,34.035,31.533,34.231
32.751,32.638000000000005,33.262,34.001999999999995,31.498,34.211
32.747,32.6,33.236,33.968,31.467,34.191
32.743,32.562,33.211,33.934,31.444000000000003,34.17
32.741,32.525,33.186,33.899,31.43,34.149
32.738,32.488,33.162,33.865,31.429000000000002,34.128
32.736,32.451,33.138000000000005,33.832,31.443,34.106
32.734,32.413000000000004,33.114000000000004,33.8,31.476,34.084
32.731,32.375,33.091,33.772,31.528000000000002,34.063
32.728,32.333,33.068000000000005,33.747,31.601999999999997,34.042
32.725,32.284,33.046,33.726,31.7,34.022
32.722,32.23,33.025,33.708,31.820999999999998,34.001999999999995
32.72,32.173,33.005,33.693000000000005,31.963,33.981
32.719,32.113,32.983000000000004,33.679,32.126999999999995,33.959
32.719,32.054,32.961,33.664,32.311,33.938
32.72,31.998,32.939,33.647,32.510999999999996,33.918
32.72,31.948,32.915,33.628,32.727,33.900999999999996
32.718,31.905,32.888000000000005,33.609,32.954,33.887
32.713,31.872,32.86,33.591,33.189,33.876
32.705999999999996,31.848000000000003,32.829,33.574,33.428000000000004,33.871
32.696,31.835,32.795,33.558,33.667,33.872
32.684,31.831999999999997,32.76,33.544000000000004,33.903,33.878
32.67,31.84,32.721,33.532,34.132,33.893
32.655,31.861,32.681999999999995,33.521,34.352,33.916
32.638000000000005,31.899,32.641,33.512,34.561,33.95
32.619,31.956,32.602,33.504,34.756,33.996
32.599000000000004,32.036,32.563,33.495,34.934,34.054
32.577,32.146,32.525999999999996,33.486,35.095,34.126
32.554,32.289,32.491,33.475,35.238,34.211
32.53,32.47,32.457,33.461999999999996,35.365,34.31
32.507,32.693000000000005,32.427,33.446,35.476,34.421
32.483000000000004,32.959,32.399,33.428000000000004,35.571999999999996,34.543
32.46,33.268,32.373000000000005,33.408,35.653,34.674
32.436,33.62,32.35,33.385999999999996,35.721,34.814
32.412,34.008,32.328,33.361,35.775999999999996,34.961
32.385999999999996,34.429,32.308,33.335,35.821,35.114000000000004
32.357,34.873000000000005,32.29,33.306,35.856,35.27
32.325,35.334,32.275,33.275999999999996,35.883,35.428000000000004
32.291,35.804,32.263000000000005,33.244,35.902,35.585
32.256,36.275,32.254,33.213,35.914,35.74
32.219,36.74,32.249,33.181999999999995,35.919000000000004,35.889
32.183,37.19,32.251999999999995,33.150999999999996,35.917,36.032
32.148,37.619,32.265,33.121,35.909,36.166
32.114000000000004,38.021,32.294000000000004,33.093,35.897,36.289
32.08,38.39,32.341,33.064,35.879,36.400999999999996
32.048,38.722,32.411,33.037,35.859,36.5
32.018,39.014,32.509,33.010999999999996,35.836999999999996,36.586999999999996
31.991999999999997,39.264,32.639,32.986999999999995,35.814,36.66
31.971,39.472,32.802,32.966,35.792,36.72
31.956999999999997,39.64,33.0,32.946,35.771,36.766999999999996
31.956,39.77,33.23,32.928000000000004,35.751999999999995,36.803000000000004
31.97,39.865,33.491,32.911,35.735,36.828
32.007,39.928000000000004,33.779,32.896,35.719,36.842
32.075,39.961999999999996,34.09,32.881,35.704,36.847
32.18,39.971,34.421,32.869,35.688,36.844
32.33,39.959,34.766,32.86,35.671,36.834
32.53,39.93,35.119,32.855,35.650999999999996,36.82
32.787,39.885999999999996,35.477,32.856,35.628,36.802
33.103,39.832,35.833,32.861999999999995,35.603,36.782
33.475,39.769,36.184,32.878,35.574,36.760999999999996
33.900999999999996,39.7,36.524,32.905,35.542,36.739000000000004
34.372,39.626999999999995,36.849000000000004,32.948,35.506,36.719
34.881,39.552,37.155,33.008,35.466,36.699
35.415,39.476,37.439,33.089,35.423,36.681
35.963,39.400999999999996,37.699,33.193000000000005,35.379,36.665
36.510999999999996,39.326,37.934,33.321,35.336,36.653
37.049,39.253,38.141999999999996,33.473,35.294000000000004,36.644
37.565,39.183,38.325,33.649,35.257,36.638000000000005
38.049,39.116,38.481,33.849000000000004,35.229,36.635999999999996
38.492,39.053000000000004,38.611999999999995,34.07,35.211999999999996,36.638000000000005
38.888000000000005,38.996,38.716,34.31,35.205,36.641999999999996
39.231,38.943000000000005,38.798,34.566,35.208,36.647
39.519,38.895,38.858000000000004,34.834,35.216,36.653
39.751999999999995,38.852,38.899,35.11,35.227,36.659
39.93,38.811,38.924,35.389,35.238,36.665
40.055,38.773,38.933,35.667,35.245,36.669000000000004
40.131,38.736,38.929,35.939,35.249,36.673
40.163000000000004,38.698,38.916,36.202,35.248000000000005,36.674
40.154,38.657,38.895,36.455,35.243,36.673
40.109,38.613,38.868,36.693000000000005,35.233000000000004,36.67
40.034,38.563,38.839,36.915,35.218,36.665
39.935,38.507,38.809,37.119,35.198,36.659
39.815,38.442,38.779,37.304,35.174,36.65
39.681,38.364000000000004,38.75,37.469,35.148,36.64
39.535,38.27,38.724000000000004,37.613,35.12,36.628
39.382,38.161,38.7,37.734,35.093,36.614000000000004
39.226,38.039,38.68,37.833,35.067,36.598
39.07,37.909,38.664,37.911,35.041,36.583
38.916,37.773,38.65,37.971,35.016999999999996,36.569
38.766,37.635,38.638000000000005,38.012,34.995,36.555
38.622,37.497,38.628,38.038000000000004,34.977,36.542
38.483000000000004,37.361999999999995,38.616,38.051,34.961999999999996,36.528
38.351,37.232,38.603,38.052,34.949,36.513000000000005
38.226,37.108000000000004,38.586,38.044000000000004,34.94,36.496
38.107,36.993,38.565,38.027,34.931,36.477
37.994,36.888000000000005,38.541,38.006,34.924,36.455
37.888000000000005,36.794000000000004,38.514,37.98,34.915,36.431
37.789,36.711999999999996,38.484,37.953,34.905,36.405
37.696999999999996,36.643,38.451,37.925,34.891999999999996,36.379
37.611999999999995,36.586,38.415,37.898,34.876,36.352
37.533,36.542,38.374,37.872,34.856,36.326
37.46,36.51,38.33,37.848,34.832,36.299
37.391999999999996,36.49,38.281,37.826,34.804,36.273
37.327,36.479,38.226,37.806,34.772,36.249
37.264,36.475,38.165,37.788000000000004,34.736,36.226
37.202,36.475,38.097,37.771,34.696999999999996,36.205999999999996
37.141,36.478,38.022,37.757,34.656,36.188
37.079,36.482,37.943000000000005,37.744,34.614000000000004,36.173
37.015,36.486,37.859,37.733000000000004,34.571,36.16
36.949,36.489000000000004,37.773,37.722,34.528,36.150999999999996
36.88,36.49,37.684,37.711,34.485,36.143
36.809,36.486,37.593,37.699,34.442,36.135999999999996
36.735,36.479,37.501999999999995,37.685,34.398,36.13
36.657,36.465,37.412,37.667,34.355,36.126
36.575,36.445,37.324,37.644,34.31,36.121
36.49,36.418,37.238,37.616,34.263000000000005,36.118
36.400999999999996,36.385,37.157,37.582,34.214,36.114000000000004
36.312,36.345,37.080999999999996,37.541,34.163000000000004,36.109
36.223,36.299,37.01,37.493,34.111,36.104
36.135,36.248000000000005,36.945,37.439,34.058,36.097
36.05,36.192,36.887,37.381,34.006,36.088
35.969,36.133,36.834,37.317,33.954,36.077
35.891999999999996,36.071999999999996,36.786,37.25,33.903,36.062
35.821999999999996,36.01,36.744,37.179,33.854,36.045
35.759,35.946999999999996,36.705999999999996,37.105,33.808,36.025999999999996
35.703,35.884,36.672,37.031,33.765,36.003
35.655,35.821,36.641999999999996,36.957,33.725,35.979
35.615,35.758,36.615,36.885999999999996,33.687,35.953
35.584,35.693000000000005,36.589,36.817,33.65,35.926
35.562,35.626,36.563,36.753,33.614000000000004,35.898
35.548,35.556,36.539,36.692,33.58,35.868
35.542,35.482,36.514,36.635,33.546,35.838
35.542,35.404,36.488,36.584,33.513000000000005,35.808
35.547,35.321999999999996,36.46,36.537,33.482,35.775999999999996
35.555,35.236999999999995,36.429,36.496,33.452,35.744
35.564,35.149,36.395,36.459,33.423,35.71
35.574,35.059,36.358000000000004,36.427,33.395,35.678000000000004
35.584,34.967,36.318000000000005,36.399,33.369,35.645
35.593,34.875,36.273,36.372,33.343,35.614000000000004
35.601,34.784,36.224000000000004,36.346,33.317,35.585
35.608000000000004,34.694,36.171,36.32,33.291,35.558
35.615,34.606,36.113,36.295,33.263000000000005,35.532
35.622,34.52,36.052,36.271,33.236,35.509
35.629,34.437,35.989000000000004,36.247,33.207,35.486
35.634,34.356,35.923,36.223,33.179,35.464
35.638000000000005,34.277,35.855,36.2,33.150999999999996,35.444
35.638000000000005,34.2,35.786,36.178000000000004,33.123000000000005,35.426
35.635,34.123000000000005,35.716,36.155,33.097,35.41
35.626999999999995,34.046,35.647,36.131,33.073,35.395
35.616,33.968,35.579,36.107,33.052,35.381
35.601,33.89,35.512,36.082,33.034,35.367
35.584,33.811,35.446999999999996,36.054,33.019,35.353
35.563,33.734,35.384,36.025,33.006,35.338
35.54,33.658,35.323,35.993,32.996,35.321999999999996
35.515,33.584,35.263000000000005,35.96,32.986999999999995,35.304
35.486999999999995,33.513000000000005,35.205,35.925,32.978,35.284
35.457,33.444,35.146,35.888000000000005,32.971,35.260999999999996
35.422,33.376999999999995,35.086999999999996,35.85,32.964,35.236
35.383,33.314,35.027,35.811,32.955999999999996,35.209
35.34,33.254,34.968,35.77,32.948,35.181
35.294000000000004,33.195,34.908,35.729,32.939,35.153
35.243,33.138000000000005,34.848,35.686,32.928000000000004,35.123000000000005
35.19,33.082,34.788000000000004,35.644,32.914,35.094
35.134,33.029,34.729,35.601,32.898,35.065
35.075,32.978,34.671,35.559,32.876999999999995,35.037
35.016,32.93,34.611999999999995,35.516,32.853,35.01
34.955,32.885999999999996,34.553000000000004,35.473,32.826,34.985
34.894,32.844,34.493,35.428000000000004,32.794000000000004,34.963
34.832,32.804,34.431,35.383,32.76,34.945
34.768,32.766999999999996,34.37,35.338,32.724000000000004,34.931
34.702,32.733000000000004,34.309,35.291,32.687,34.923
34.634,32.7,34.249,35.243,32.650999999999996,34.918
34.564,32.67,34.19,35.194,32.618,34.918
34.494,32.643,34.132,35.145,32.586999999999996,34.92
34.424,32.617,34.074,35.094,32.561,34.925
34.355,32.592,34.018,35.043,32.539,34.931999999999995
34.289,32.569,33.961999999999996,34.991,32.522,34.94
34.226,32.546,33.907,34.938,32.51,34.946999999999996
34.164,32.523,33.853,34.885,32.501999999999995,34.954
34.102,32.5,33.799,34.829,32.498000000000005,34.958
34.04,32.476,33.746,34.772,32.497,34.959
33.977,32.454,33.695,34.713,32.5,34.957
33.916,32.431999999999995,33.646,34.653,32.508,34.951
33.856,32.413000000000004,33.6,34.593,32.524,34.942
33.798,32.396,33.558,34.534,32.549,34.93
33.743,32.38,33.519,34.476,32.584,34.916
33.691,32.366,33.484,34.42,32.631,34.9
33.641,32.352,33.454,34.366,32.692,34.883
33.593,32.336999999999996,33.426,34.316,32.769,34.865
33.546,32.321,33.402,34.269,32.863,34.847
33.501,32.304,33.378,34.226,32.976,34.828
33.455999999999996,32.285,33.354,34.186,33.106,34.809
33.413000000000004,32.264,33.329,34.15,33.254,34.79
33.37,32.24,33.303000000000004,34.117,33.419000000000004,34.771
33.33,32.214,33.275,34.086,33.599000000000004,34.751
33.293,32.185,33.247,34.056,33.793,34.732
33.26,32.155,33.218,34.025999999999996,33.999,34.713
33.229,32.123000000000005,33.189,33.997,34.214,34.695
33.202,32.089,33.162,33.969,34.436,34.677
33.178000000000004,32.054,33.135,33.94,34.66,34.658
33.156,32.016999999999996,33.109,33.911,34.882,34.64
33.135,31.98,33.085,33.881,35.099000000000004,34.623000000000005
33.115,31.941999999999997,33.062,33.852,35.308,34.607
33.096,31.903000000000002,33.04,33.82,35.507,34.591
33.078,31.861,33.018,33.788000000000004,35.692,34.576
33.063,31.816,32.997,33.754,35.861999999999995,34.563
33.049,31.767,32.976,33.718,36.015,34.55
33.036,31.715999999999998,32.957,33.681999999999995,36.149,34.538000000000004
33.025999999999996,31.663,32.939,33.646,36.264,34.525
33.016999999999996,31.609,32.922,33.611,36.361,34.513000000000005
33.01,31.555,32.906,33.576,36.44,34.5
33.004,31.502,32.89,33.544000000000004,36.501999999999995,34.486
32.998000000000005,31.45,32.874,33.514,36.546,34.47
32.993,31.4,32.858000000000004,33.488,36.575,34.453
32.989000000000004,31.353,32.841,33.465,36.591,34.434
32.986,31.308000000000003,32.825,33.446,36.594,34.415
32.984,31.266,32.806999999999995,33.431,36.588,34.394
32.983000000000004,31.226999999999997,32.788000000000004,33.418,36.573,34.372
32.982,31.19,32.768,33.408,36.551,34.35
32.98,31.155,32.747,33.4,36.522,34.327
32.976,31.121,32.724000000000004,33.393,36.488,34.304
32.97,31.09,32.698,33.385999999999996,36.45,34.282
32.963,31.06,32.672,33.38,36.409,34.26
32.955,31.035999999999998,32.644,33.373000000000005,36.367,34.239000000000004
32.948,31.019000000000002,32.616,33.367,36.325,34.219
32.942,31.013,32.586999999999996,33.361,36.284,34.201
32.937,31.023000000000003,32.556,33.353,36.245,34.184
32.933,31.055,32.524,33.344,36.209,34.169000000000004
32.929,31.115,32.49,33.334,36.178000000000004,34.156
32.926,31.213,32.453,33.323,36.15,34.146
32.923,31.354,32.415,33.311,36.124,34.139
32.92,31.546,32.376,33.298,36.101,34.135
32.917,31.793000000000003,32.336,33.284,36.078,34.135999999999996
32.913000000000004,32.096,32.296,33.27,36.056,34.139
32.909,32.457,32.257,33.254,36.032,34.147
32.904,32.871,32.218,33.236,36.004,34.161
32.897,33.334,32.18,33.216,35.972,34.181999999999995
32.889,33.839,32.143,33.195,35.934,34.21
32.876999999999995,34.374,32.107,33.173,35.891999999999996,34.248000000000005
32.864000000000004,34.93,32.071999999999996,33.150999999999996,35.845,34.297
32.847,35.496,32.038000000000004,33.129,35.794000000000004,34.357
32.827,36.059,32.007,33.106,35.739000000000004,34.429
32.805,36.608000000000004,31.976,33.084,35.68,34.514
32.781,37.134,31.948,33.061,35.617,34.613
32.756,37.626,31.921,33.038000000000004,35.553000000000004,34.726
32.73,38.079,31.897,33.016,35.488,34.851
32.704,38.485,31.877,32.994,35.425,34.986999999999995
32.679,38.84,31.861,32.975,35.364000000000004,35.133
32.654,39.143,31.85,32.957,35.306999999999995,35.288000000000004
32.63,39.393,31.845,32.94,35.254,35.449
32.606,39.59,31.846999999999998,32.926,35.207,35.614000000000004
32.583,39.738,31.859,32.912,35.166,35.781
32.561,39.838,31.883000000000003,32.899,35.132,35.946999999999996
32.54,39.897,31.921,32.887,35.103,36.11
32.519,39.919000000000004,31.979,32.876999999999995,35.080999999999996,36.266999999999996
32.498000000000005,39.91,32.059,32.867,35.064,36.416
32.477,39.875,32.168,32.857,35.052,36.556
32.455999999999996,39.819,32.306999999999995,32.847,35.044000000000004,36.685
32.433,39.748000000000005,32.48,32.836,35.041,36.802
32.407,39.665,32.686,32.825,35.043,36.907
32.38,39.575,32.926,32.816,35.05,37.0
32.35,39.481,33.199,32.809,35.06,37.079
32.318000000000005,39.385,33.501,32.806,35.074,37.145
32.285,39.289,33.829,32.809,35.091,37.198
32.251,39.194,34.178000000000004,32.823,35.108000000000004,37.238
32.217,39.101,34.539,32.849000000000004,35.125,37.265
32.183,39.01,34.908,32.891,35.141999999999996,37.282
32.150999999999996,38.923,35.278,32.952,35.158,37.289
32.119,38.839,35.641999999999996,33.034,35.173,37.288000000000004
32.089,38.760999999999996,35.996,33.139,35.188,37.28
32.062,38.686,36.334,33.266999999999996,35.201,37.266999999999996
32.039,38.617,36.652,33.421,35.211999999999996,37.251999999999995
32.023,38.553000000000004,36.946999999999996,33.599000000000004,35.222,37.235
32.016999999999996,38.494,37.217,33.8,35.232,37.216
32.027,38.44,37.461,34.023,35.239000000000004,37.196999999999996
32.056,38.389,37.679,34.265,35.244,37.177
32.111,38.34,37.87,34.523,35.244,37.157
32.2,38.292,38.034,34.795,35.238,37.139
32.328,38.243,38.171,35.075,35.226,37.124
32.503,38.193000000000005,38.283,35.361999999999995,35.209,37.11
32.73,38.14,38.371,35.65,35.185,37.1
33.012,38.083,38.436,35.936,35.156,37.093
33.349000000000004,38.021,38.482,36.217,35.122,37.088
33.739000000000004,37.954,38.509,36.488,35.085,37.086
34.175,37.878,38.521,36.747,35.047,37.086
34.65,37.794000000000004,38.52,36.99,35.008,37.088
35.152,37.7,38.51,37.214,34.97,37.091
35.67,37.597,38.492,37.419000000000004,34.933,37.094
36.192,37.484,38.469,37.602,34.897,37.096
36.707,37.364000000000004,38.441,37.762,34.864000000000004,37.097
37.203,37.238,38.41,37.898,34.832,37.097
37.671,37.108000000000004,38.379,38.010999999999996,34.801,37.095
38.1,36.979,38.348,38.1,34.771,37.092
38.486,36.852,38.319,38.167,34.739000000000004,37.086
38.821,36.731,38.293,38.213,34.704,37.077
39.104,36.618,38.271,38.242,34.668,37.064
39.334,36.516,38.253,38.255,34.63,37.048
39.512,36.424,38.238,38.256,34.592,37.029
39.638000000000005,36.344,38.226,38.246,34.552,37.006
39.718,36.275999999999996,38.217,38.228,34.512,36.981
39.753,36.22,38.21,38.204,34.473,36.953
39.75,36.176,38.205,38.175,34.436,36.924
39.713,36.141999999999996,38.201,38.141999999999996,34.402,36.895
39.65,36.116,38.195,38.107,34.371,36.867
39.565,36.099000000000004,38.188,38.07,34.344,36.839
39.463,36.088,38.176,38.034,34.318000000000005,36.812
39.35,36.082,38.16,37.999,34.293,36.785
39.227,36.078,38.138000000000005,37.966,34.27,36.76
39.099000000000004,36.075,38.109,37.936,34.248000000000005,36.736
38.968,36.071,38.071999999999996,37.908,34.227,36.711999999999996
38.835,36.065,38.027,37.884,34.205999999999996,36.689
38.702,36.055,37.975,37.863,34.184,36.668
38.569,36.041,37.915,37.843,34.161,36.648
38.437,36.023,37.848,37.824,34.139,36.628
38.305,36.001999999999995,37.775,37.805,34.118,36.607
38.175,35.979,37.696999999999996,37.784,34.098,36.585
38.047,35.953,37.615,37.763000000000005,34.078,36.564
37.922,35.927,37.532,37.741,34.059,36.543
37.801,35.899,37.448,37.717,34.041,36.523
37.686,35.872,37.364000000000004,37.691,34.03,36.507
37.576,35.843,37.281,37.661,34.029,36.494
37.472,35.812,37.2,37.628,34.036,36.486999999999995
37.373000000000005,35.78,37.123000000000005,37.589,34.049,36.485
37.28,35.745,37.051,37.546,34.062,36.486999999999995
37.191,35.707,36.986,37.497,34.073,36.493
37.107,35.665,36.928000000000004,37.444,34.08,36.501
37.027,35.618,36.875,37.384,34.080999999999996,36.510999999999996
36.95,35.568000000000005,36.826,37.318000000000005,34.075,36.521
36.878,35.514,36.781,37.248000000000005,34.06,36.53
36.809,35.455,36.739000000000004,37.175,34.036,36.537
36.741,35.393,36.701,37.103,34.004,36.543
36.676,35.329,36.666,37.035,33.965,36.546
36.611,35.260999999999996,36.632,36.973,33.923,36.545
36.546,35.19,36.599000000000004,36.917,33.879,36.54
36.479,35.118,36.568000000000005,36.868,33.834,36.53
36.412,35.043,36.539,36.827,33.789,36.515
36.343,34.968,36.510999999999996,36.793,33.747,36.496
36.271,34.891999999999996,36.484,36.765,33.709,36.472
36.198,34.815,36.459,36.744,33.675,36.445
36.122,34.738,36.434,36.728,33.646,36.415
36.044000000000004,34.661,36.41,36.718,33.622,36.383
35.967,34.582,36.387,36.711999999999996,33.602,36.349000000000004
35.891,34.503,36.364000000000004,36.711,33.586999999999996,36.313
35.82,34.424,36.339,36.711999999999996,33.575,36.277
35.754,34.343,36.313,36.716,33.567,36.24
35.694,34.260999999999996,36.284,36.719,33.563,36.203
35.64,34.179,36.253,36.721,33.561,36.166
35.593,34.097,36.217,36.721,33.563,36.126999999999995
35.553000000000004,34.015,36.177,36.718,33.569,36.088
35.518,33.934,36.133,36.711,33.583,36.049
35.488,33.856,36.083,36.7,33.606,36.012
35.464,33.782,36.029,36.683,33.64,35.977
35.445,33.713,35.971,36.662,33.685,35.944
35.431,33.648,35.908,36.635999999999996,33.745,35.913000000000004
35.422,33.586999999999996,35.842,36.607,33.82,35.884
35.418,33.529,35.771,36.576,33.911,35.858000000000004
35.42,33.475,35.699,36.542,34.019,35.834
35.426,33.425,35.624,36.506,34.141999999999996,35.811
35.436,33.378,35.548,36.468,34.279,35.789
35.448,33.333,35.471,36.428000000000004,34.429,35.766999999999996
35.46,33.29,35.394,36.387,34.591,35.745
35.472,33.247,35.319,36.345,34.763000000000005,35.723
35.484,33.203,35.246,36.302,34.945,35.701
35.494,33.159,35.175,36.258,35.133,35.678000000000004
35.503,33.115,35.107,36.214,35.327,35.656
35.51,33.071999999999996,35.042,36.168,35.525,35.633
35.516,33.03,34.98,36.122,35.725,35.61
35.52,32.991,34.923,36.076,35.925,35.585
35.522,32.954,34.869,36.028,36.124,35.56
35.523,32.922,34.818000000000005,35.981,36.318000000000005,35.533
35.521,32.894,34.769,35.931999999999995,36.505,35.506
35.516,32.869,34.723,35.881,36.684,35.478
35.508,32.847,34.676,35.828,36.851,35.45
35.497,32.826,34.631,35.775,37.005,35.421
35.481,32.806,34.585,35.72,37.146,35.391
35.461999999999996,32.786,34.538000000000004,35.664,37.271,35.361
35.437,32.766,34.492,35.607,37.38,35.330999999999996
35.408,32.744,34.444,35.549,37.473,35.299
35.374,32.722,34.388000000000005,35.492,37.549,35.266999999999996
35.336,32.699,34.325,35.434,37.608000000000004,35.234
35.295,32.676,34.254,35.376,37.65,35.202
35.251,32.654,34.178000000000004,35.318000000000005,37.676,35.17
35.205,32.634,34.099000000000004,35.260999999999996,37.688,35.139
35.157,32.616,34.021,35.204,37.688,35.111
35.107,32.602,33.946999999999996,35.147,37.678000000000004,35.085
35.055,32.592,33.879,35.089,37.659,35.061
35.001999999999995,32.586999999999996,33.818000000000005,35.032,37.633,35.039
34.946,32.586,33.764,34.976,37.601,35.02
34.889,32.591,33.719,34.919000000000004,37.565,35.003
34.83,32.599000000000004,33.681999999999995,34.864000000000004,37.528,34.985
34.772,32.607,33.652,34.81,37.489000000000004,34.964
34.714,32.614000000000004,33.626999999999995,34.760999999999996,37.449,34.941
34.656,32.619,33.607,34.721,37.409,34.915
34.598,32.618,33.591,34.691,37.369,34.885999999999996
34.539,32.613,33.579,34.668,37.328,34.856
34.479,32.604,33.568000000000005,34.650999999999996,37.288000000000004,34.826
34.419000000000004,32.592,33.558,34.637,37.249,34.796
34.357,32.577,33.549,34.622,37.211999999999996,34.768
34.294000000000004,32.559,33.539,34.604,37.175,34.741
34.23,32.54,33.527,34.580999999999996,37.138000000000005,34.716
34.166,32.519,33.514,34.553000000000004,37.101,34.693000000000005
34.104,32.497,33.498000000000005,34.519,37.064,34.672
34.043,32.473,33.481,34.481,37.025999999999996,34.653
33.984,32.446999999999996,33.461999999999996,34.437,36.986999999999995,34.634
33.927,32.419000000000004,33.442,34.389,36.945,34.616
33.872,32.389,33.421,34.339,36.899,34.598
33.818000000000005,32.355,33.4,34.286,36.849000000000004,34.582
33.765,32.319,33.38,34.233000000000004,36.795,34.566
33.711999999999996,32.281,33.361999999999995,34.179,36.736,34.552
33.66,32.24,33.346,34.126999999999995,36.673,34.539
33.61,32.196999999999996,33.332,34.077,36.606,34.525999999999996
33.562,32.153,33.32,34.029,36.538000000000004,34.514
33.516,32.107,33.309,33.984,36.469,34.504
33.473,32.06,33.298,33.941,36.4,34.495
33.431999999999995,32.013000000000005,33.287,33.902,36.334,34.486
33.391999999999996,31.965999999999998,33.275,33.865,36.273,34.478
33.353,31.921,33.262,33.833,36.217,34.47
33.315,31.875999999999998,33.246,33.804,36.168,34.461
33.277,31.831999999999997,33.228,33.778,36.128,34.452
33.24,31.787,33.208,33.756,36.096,34.442
33.204,31.743000000000002,33.186,33.736,36.071,34.43
33.168,31.698,33.163000000000004,33.717,36.053000000000004,34.417
33.132,31.653000000000002,33.138000000000005,33.699,36.041,34.400999999999996
33.099000000000004,31.61,33.111999999999995,33.68,36.035,34.382
33.067,31.569000000000003,33.084,33.66,36.031,34.361999999999995
33.039,31.534000000000002,33.056,33.64,36.028,34.341
33.013000000000005,31.506,33.025999999999996,33.62,36.025,34.318000000000005
32.991,31.488000000000003,32.993,33.601,36.021,34.294000000000004
32.971,31.486,32.959,33.585,36.015,34.27
32.953,31.503,32.922,33.57,36.009,34.247
32.937,31.545,32.883,33.556,36.001999999999995,34.224000000000004
32.922,31.618000000000002,32.843,33.545,35.994,34.204
32.908,31.73,32.803000000000004,33.534,35.986,34.186
32.896,31.886999999999997,32.762,33.525,35.979,34.17
32.884,32.094,32.72,33.516999999999996,35.972,34.156
32.878,32.355,32.679,33.509,35.967,34.145
32.88,32.672,32.638000000000005,33.5,35.961999999999996,34.135
32.891999999999996,33.043,32.597,33.488,35.958,34.126999999999995
32.911,33.464,32.556999999999995,33.473,35.953,34.12
32.937,33.927,32.516999999999996,33.455,35.948,34.113
32.965,34.424,32.48,33.434,35.942,34.107
32.993,34.945,32.443000000000005,33.41,35.931999999999995,34.1
33.019,35.478,32.407,33.383,35.92,34.093
33.04,36.012,32.372,33.355,35.903,34.085
33.056,36.535,32.336999999999996,33.324,35.883,34.075
33.065,37.038000000000004,32.303000000000004,33.292,35.861,34.064
33.066,37.513000000000005,32.271,33.258,35.835,34.051
33.059,37.953,32.242,33.224000000000004,35.806999999999995,34.036
33.046,38.351,32.215,33.19,35.775,34.018
33.025999999999996,38.705999999999996,32.191,33.157,35.739000000000004,33.999
33.001999999999995,39.013000000000005,32.169000000000004,33.125,35.7,33.978
32.975,39.273,32.150999999999996,33.093,35.658,33.955
32.949,39.486999999999995,32.137,33.062,35.615,33.931999999999995
32.924,39.656,32.128,33.032,35.571999999999996,33.91
32.902,39.784,32.126999999999995,33.003,35.528,33.89
32.883,39.872,32.135999999999996,32.975,35.485,33.874
32.865,39.923,32.16,32.95,35.442,33.863
32.85,39.941,32.203,32.926,35.400999999999996,33.858000000000004
32.838,39.93,32.269,32.906,35.361,33.86
32.828,39.895,32.36,32.888000000000005,35.323,33.872
32.821,39.836999999999996,32.481,32.87,35.285,33.895
32.815,39.762,32.632,32.853,35.248000000000005,33.931
32.811,39.672,32.816,32.836,35.21,33.982
32.806999999999995,39.569,33.032,32.819,35.171,34.05
32.803000000000004,39.457,33.28,32.801,35.129,34.135
32.799,39.34,33.555,32.784,35.086,34.238
32.793,39.22,33.853,32.766999999999996,35.043,34.359
32.785,39.1,34.171,32.751,34.998000000000005,34.496
32.775999999999996,38.982,34.501,32.738,34.953,34.648
32.765,38.867,34.84,32.73,34.907,34.812
32.751,38.755,35.183,32.729,34.861999999999995,34.986999999999995
32.736,38.647,35.525,32.738,34.818000000000005,35.17
32.718,38.543,35.861999999999995,32.762,34.777,35.359
32.696999999999996,38.444,36.191,32.805,34.738,35.552
32.672,38.349000000000004,36.506,32.868,34.701,35.747
32.645,38.258,36.805,32.955999999999996,34.665,35.943000000000005
32.616,38.172,37.084,33.071,34.632,36.135999999999996
32.584,38.091,37.34,33.214,34.601,36.324
32.551,38.014,37.569,33.387,34.571999999999996,36.505
32.518,37.942,37.77,33.589,34.544000000000004,36.678000000000004
32.485,37.874,37.943000000000005,33.819,34.515,36.841
32.452,37.806999999999995,38.088,34.073,34.486,36.994
32.419000000000004,37.741,38.205,34.349000000000004,34.454,37.135999999999996
32.388000000000005,37.674,38.296,34.644,34.42,37.266
32.358000000000004,37.605,38.363,34.953,34.382,37.383
32.33,37.533,38.409,35.271,34.341,37.489000000000004
32.303000000000004,37.455999999999996,38.436,35.595,34.298,37.584
32.278,37.373000000000005,38.446,35.92,34.251999999999995,37.667
32.255,37.285,38.442,36.24,34.205999999999996,37.736999999999995
32.234,37.192,38.427,36.553000000000004,34.159,37.796
32.215,37.095,38.403,36.854,34.113,37.842
32.198,36.996,38.372,37.138000000000005,34.068000000000005,37.878
32.185,36.896,38.336,37.404,34.024,37.904
32.178000000000004,36.797,38.298,37.649,33.983000000000004,37.921
32.181,36.701,38.259,37.87,33.945,37.93
32.196999999999996,36.608000000000004,38.221,38.066,33.91,37.931999999999995
32.232,36.521,38.185,38.236999999999995,33.878,37.93
32.292,36.441,38.15,38.383,33.85,37.923
32.382,36.367,38.117,38.505,33.825,37.913000000000004
32.51,36.302,38.086999999999996,38.603,33.805,37.9
32.68,36.245,38.059,38.681,33.788000000000004,37.888000000000005
32.896,36.199,38.033,38.739000000000004,33.774,37.875
33.159,36.163000000000004,38.01,38.78,33.760999999999996,37.861999999999995
33.471,36.14,37.99,38.805,33.749,37.85
33.828,36.126999999999995,37.972,38.815,33.736,37.84
34.227,36.126,37.955,38.814,33.722,37.83
34.659,36.133,37.937,38.803000000000004,33.705999999999996,37.821999999999996
35.118,36.149,37.92,38.786,33.689,37.816
35.592,36.169000000000004,37.9,38.763000000000005,33.669000000000004,37.81
36.07,36.192,37.876,38.738,33.647,37.806
36.543,36.217,37.848,38.711,33.625,37.802
36.999,36.242,37.815,38.683,33.605,37.8
37.431,36.265,37.775,38.655,33.591,37.798
37.830999999999996,36.284,37.73,38.628,33.585,37.796
38.193000000000005,36.3,37.679,38.602,33.59,37.793
38.513000000000005,36.312,37.622,38.58,33.609,37.788000000000004
38.787,36.319,37.559,38.56,33.645,37.781
39.014,36.321,37.49,38.545,33.7,37.771
39.193000000000005,36.319,37.416,38.533,33.775999999999996,37.757
39.325,36.31,37.338,38.525,33.875,37.74
39.412,36.295,37.258,38.52,33.996,37.719
39.455999999999996,36.274,37.174,38.516,34.137,37.696999999999996
39.461999999999996,36.247,37.089,38.513000000000005,34.296,37.672
39.431999999999995,36.213,37.004,38.509,34.473,37.646
39.373000000000005,36.175,36.919000000000004,38.503,34.664,37.618
39.287,36.133,36.836999999999996,38.493,34.869,37.588
39.181999999999995,36.086999999999996,36.757,38.48,35.086,37.558
39.06,36.038000000000004,36.68,38.461,35.311,37.527
38.926,35.986999999999995,36.608000000000004,38.437,35.543,37.497
38.784,35.931999999999995,36.541,38.407,35.778,37.467
38.638000000000005,35.871,36.481,38.37,36.014,37.439
38.49,35.799,36.427,38.326,36.249,37.412
38.343,35.716,36.38,38.275999999999996,36.48,37.388000000000005
38.196999999999996,35.621,36.34,38.219,36.702,37.367
38.055,35.516999999999996,36.306,38.159,36.913000000000004,37.347
37.919000000000004,35.405,36.277,38.094,37.109,37.33
37.787,35.291,36.253,38.028,37.288000000000004,37.314
37.663000000000004,35.177,36.233000000000004,37.96,37.446999999999996,37.299
37.544000000000004,35.065,36.215,37.891999999999996,37.588,37.285
37.431,34.959,36.2,37.826,37.708,37.272
37.323,34.859,36.186,37.762,37.809,37.259
37.221,34.766999999999996,36.172,37.701,37.89,37.249
37.123000000000005,34.681,36.158,37.643,37.952,37.239000000000004
37.031,34.602,36.144,37.589,37.995,37.229
36.945,34.528,36.126999999999995,37.539,38.02,37.219
36.864000000000004,34.459,36.109,37.493,38.029,37.208
36.789,34.393,36.086999999999996,37.451,38.022,37.196999999999996
36.719,34.329,36.062,37.412,38.003,37.183
36.653,34.266,36.034,37.376999999999995,37.972,37.167
36.591,34.203,36.003,37.346,37.931,37.149
36.529,34.139,35.969,37.319,37.882,37.129
36.467,34.074,35.931999999999995,37.295,37.829,37.107
36.404,34.007,35.891,37.274,37.773,37.083
36.339,33.937,35.848,37.255,37.716,37.056999999999995
36.271,33.865,35.801,37.238,37.659,37.028
36.202,33.791,35.751999999999995,37.222,37.604,36.998000000000005
36.131,33.717,35.7,37.205,37.549,36.965
36.059,33.641999999999996,35.645,37.187,37.495,36.931
35.986999999999995,33.569,35.59,37.169000000000004,37.442,36.896
35.915,33.499,35.534,37.149,37.39,36.861
35.843,33.431,35.477,37.128,37.338,36.825
35.773,33.367,35.419000000000004,37.105,37.285,36.791
35.705,33.306999999999995,35.359,37.079,37.232,36.756
35.64,33.25,35.295,37.05,37.177,36.723
35.578,33.195,35.229,37.019,37.122,36.689
35.522,33.143,35.16,36.985,37.067,36.655
35.471,33.092,35.089,36.946999999999996,37.012,36.621
35.426,33.044000000000004,35.016,36.906,36.957,36.586
35.39,32.997,34.941,36.863,36.9,36.551
35.361,32.952,34.865,36.816,36.84,36.515
35.341,32.908,34.789,36.765,36.777,36.479
35.329,32.866,34.713,36.711999999999996,36.71,36.443000000000005
35.325,32.825,34.638000000000005,36.656,36.639,36.407
35.328,32.785,34.564,36.596,36.564,36.372
35.336,32.747,34.49,36.534,36.486,36.338
35.349000000000004,32.711,34.418,36.47,36.407,36.305
35.365,32.678000000000004,34.346,36.405,36.329,36.271
35.385,32.648,34.275,36.34,36.254,36.236
35.407,32.619,34.204,36.275999999999996,36.183,36.201
35.431999999999995,32.593,34.134,36.213,36.118,36.166
35.457,32.568000000000005,34.065,36.15,36.058,36.131
35.484,32.546,33.999,36.089,36.005,36.094
35.51,32.525,33.937,36.03,35.959,36.056
35.536,32.506,33.878,35.972,35.92,36.016999999999996
35.559,32.488,33.821999999999996,35.915,35.887,35.977
35.58,32.471,33.769,35.858000000000004,35.86,35.936
35.597,32.454,33.719,35.801,35.836,35.894
35.61,32.438,33.673,35.745,35.817,35.85
35.619,32.423,33.63,35.689,35.801,35.806
35.623000000000005,32.41,33.589,35.635,35.79,35.76
35.621,32.399,33.552,35.580999999999996,35.783,35.714
35.614000000000004,32.39,33.516999999999996,35.528,35.78,35.669000000000004
35.603,32.382,33.485,35.474000000000004,35.779,35.625
35.588,32.374,33.455,35.42,35.781,35.585
35.57,32.366,33.425,35.365,35.783,35.549
35.549,32.357,33.395,35.309,35.784,35.516
35.525999999999996,32.347,33.366,35.251999999999995,35.784,35.488
35.499,32.335,33.336,35.194,35.782,35.461999999999996
35.469,32.32,33.306999999999995,35.135,35.777,35.439
35.435,32.303000000000004,33.277,35.076,35.769,35.418
35.397,32.284,33.246,35.018,35.757,35.398
35.354,32.263000000000005,33.214,34.961,35.74,35.378
35.306999999999995,32.241,33.181999999999995,34.906,35.72,35.357
35.258,32.218,33.149,34.852,35.698,35.336
35.209,32.194,33.116,34.799,35.675,35.315
35.16,32.17,33.082,34.748000000000005,35.652,35.294000000000004
35.111999999999995,32.148,33.049,34.699,35.629,35.274
35.065,32.129,33.015,34.652,35.605,35.253
35.016999999999996,32.111999999999995,32.981,34.606,35.582,35.232
34.968,32.096,32.946999999999996,34.56,35.559,35.21
34.917,32.079,32.913000000000004,34.516,35.536,35.187
34.865,32.058,32.876999999999995,34.473,35.510999999999996,35.164
34.812,32.034,32.842,34.431,35.483000000000004,35.141
34.757,32.004,32.806,34.39,35.451,35.118
34.702,31.97,32.771,34.351,35.414,35.094
34.646,31.930999999999997,32.735,34.314,35.373000000000005,35.069
34.589,31.888,32.7,34.278,35.328,35.044000000000004
34.532,31.843000000000004,32.665,34.243,35.278,35.018
34.474000000000004,31.795,32.63,34.209,35.226,34.992
34.416,31.746,32.598,34.177,35.172,34.965
34.357,31.697,32.567,34.145,35.117,34.938
34.299,31.649,32.537,34.114000000000004,35.063,34.911
34.241,31.601999999999997,32.51,34.084,35.01,34.885
34.184,31.555999999999997,32.485,34.054,34.96,34.859
34.126999999999995,31.511,32.463,34.025999999999996,34.911,34.835
34.071999999999996,31.468000000000004,32.443000000000005,33.999,34.863,34.812
34.018,31.425,32.424,33.972,34.816,34.791
33.965,31.383000000000003,32.404,33.946,34.77,34.772
33.915,31.342,32.385999999999996,33.92,34.724000000000004,34.754
33.866,31.302,32.367,33.894,34.678000000000004,34.736999999999995
33.82,31.265,32.349000000000004,33.869,34.632,34.722
33.775999999999996,31.232,32.33,33.845,34.586,34.705999999999996
33.735,31.205,32.31,33.82,34.54,34.69
33.695,31.188000000000002,32.29,33.795,34.496,34.674
33.659,31.180999999999997,32.266999999999996,33.766999999999996,34.454,34.656
33.624,31.191,32.242,33.736,34.414,34.635999999999996
33.591,31.224,32.216,33.703,34.375,34.614000000000004
33.559,31.287,32.189,33.668,34.336,34.591
33.528,31.39,32.161,33.632,34.296,34.565
33.5,31.541999999999998,32.132,33.595,34.254,34.537
33.474000000000004,31.749000000000002,32.103,33.558,34.211999999999996,34.508
33.45,32.018,32.074,33.522,34.168,34.478
33.428000000000004,32.352,32.044000000000004,33.488,34.122,34.446999999999996
33.407,32.753,32.013000000000005,33.455999999999996,34.076,34.415
33.388000000000005,33.218,31.980999999999998,33.427,34.03,34.381
33.369,33.739000000000004,31.949,33.400999999999996,33.986,34.348
33.352,34.308,31.916,33.378,33.945,34.316
33.335,34.911,31.883000000000003,33.358000000000004,33.906,34.285
33.318000000000005,35.534,31.85,33.34,33.871,34.257
33.302,36.164,31.818,33.323,33.836999999999996,34.231
33.286,36.788000000000004,31.785999999999998,33.306999999999995,33.804,34.208
33.271,37.391,31.755,33.29,33.772,34.189
33.257,37.963,31.724,33.273,33.741,34.17
33.245,38.494,31.694000000000003,33.255,33.711,34.153
33.234,38.977,31.664,33.236999999999995,33.681999999999995,34.135999999999996
33.226,39.406,31.635,33.217,33.656,34.119
33.218,39.779,31.605,33.195,33.631,34.101
33.211,40.092,31.575,33.172,33.609,34.080999999999996
33.204,40.348,31.541999999999998,33.148,33.589,34.061
33.198,40.548,31.506999999999998,33.122,33.571,34.04
33.192,40.695,31.469,33.096,33.554,34.016999999999996
33.186,40.792,31.430999999999997,33.07,33.538000000000004,33.993
33.181,40.845,31.393,33.042,33.522,33.969
33.175,40.858000000000004,31.359,33.014,33.507,33.944
33.171,40.836999999999996,31.33,32.984,33.49,33.919000000000004
33.167,40.789,31.31,32.951,33.473,33.893
33.165,40.719,31.302,32.918,33.453,33.868
33.164,40.632,31.311,32.885,33.431999999999995,33.844
33.165,40.533,31.343000000000004,32.852,33.41,33.821
33.166,40.425,31.4,32.821,33.389,33.8
33.167,40.314,31.489,32.791,33.369,33.779
33.167,40.202,31.612,32.762,33.349000000000004,33.760999999999996
33.167,40.091,31.773000000000003,32.734,33.33,33.743
33.165,39.983000000000004,31.971,32.707,33.311,33.727
33.163000000000004,39.878,32.208,32.681999999999995,33.294000000000004,33.711999999999996
33.16,39.778,32.48,32.659,33.277,33.699
33.155,39.684,32.786,32.638000000000005,33.26,33.688
33.147,39.596,33.12,32.619,33.244,33.679
33.137,39.515,33.479,32.6,33.227,33.674
33.125,39.44,33.854,32.580999999999996,33.211,33.67
33.11,39.372,34.238,32.561,33.196999999999996,33.67
33.092,39.309,34.623000000000005,32.541,33.186,33.675
33.071999999999996,39.253,35.003,32.519,33.181999999999995,33.681999999999995
33.05,39.202,35.372,32.496,33.187,33.691
33.027,39.156,35.725,32.471,33.203,33.703
33.001999999999995,39.113,36.058,32.444,33.233000000000004,33.722
32.976,39.071,36.367,32.417,33.279,33.751
32.95,39.03,36.650999999999996,32.388000000000005,33.345,33.795
32.924,38.989000000000004,36.906,32.36,33.431999999999995,33.859
32.897,38.946,37.133,32.332,33.543,33.945
32.871,38.900999999999996,37.332,32.306,33.677,34.055
32.844,38.853,37.503,32.282,33.836,34.187
32.817,38.8,37.645,32.260999999999996,34.02,34.342
32.791,38.741,37.759,32.245,34.227,34.519
32.764,38.675,37.845,32.235,34.458,34.717
32.736,38.601,37.907,32.234,34.709,34.933
32.709,38.519,37.945,32.246,34.98,35.163000000000004
32.688,38.427,37.963,32.273,35.266,35.404
32.675,38.327,37.961999999999996,32.319,35.563,35.653
32.672,38.219,37.944,32.388000000000005,35.866,35.905
32.676,38.106,37.912,32.484,36.171,36.155
32.684,37.988,37.867,32.61,36.472,36.4
32.694,37.869,37.812,32.766999999999996,36.765,36.635
32.704,37.749,37.75,32.958,37.044000000000004,36.859
32.713,37.631,37.684,33.181,37.306,37.067
32.721,37.516999999999996,37.616,33.437,37.548,37.259
32.73,37.41,37.55,33.722,37.766999999999996,37.433
32.744,37.31,37.486999999999995,34.034,37.961999999999996,37.588
32.768,37.22,37.429,34.368,38.131,37.725
32.808,37.138000000000005,37.376999999999995,34.721,38.275999999999996,37.842
32.871,37.067,37.330999999999996,35.086,38.394,37.94
32.965,37.008,37.291,35.458,38.488,38.019
33.096,36.959,37.256,35.833,38.559,38.078
33.27,36.922,37.227,36.205,38.609,38.12
33.492,36.895,37.204,36.568000000000005,38.64,38.147
33.762,36.876999999999995,37.185,36.918,38.652,38.16
34.080999999999996,36.867,37.169000000000004,37.251,38.649,38.162
34.444,36.864000000000004,37.154,37.562,38.631,38.155
34.846,36.864000000000004,37.14,37.85,38.602,38.14
35.277,36.868,37.126,38.111,38.562,38.121
35.728,36.873000000000005,37.11,38.345,38.515,38.097
36.189,36.876999999999995,37.09,38.55,38.461999999999996,38.071
36.648,36.876999999999995,37.064,38.728,38.405,38.042
37.097,36.875,37.031,38.878,38.346,38.013000000000005
37.525999999999996,36.869,36.99,39.0,38.285,37.984
37.926,36.858000000000004,36.942,39.097,38.224000000000004,37.955999999999996
38.291,36.844,36.885,39.169000000000004,38.165,37.931
38.615,36.826,36.821,39.218,38.109,37.91
38.896,36.803000000000004,36.75,39.249,38.056,37.894
39.129,36.775,36.672,39.263000000000005,38.005,37.882
39.316,36.743,36.588,39.262,37.955,37.874
39.455,36.705999999999996,36.498000000000005,39.25,37.907,37.868
39.549,36.664,36.406,39.229,37.867,37.865
39.601,36.618,36.313,39.2,37.836999999999996,37.863
39.613,36.567,36.221,39.166,37.813,37.863
39.592,36.512,36.132,39.128,37.793,37.864000000000004
39.541,36.454,36.048,39.086999999999996,37.774,37.865
39.467,36.393,35.97,39.046,37.753,37.866
39.375,36.33,35.9,39.007,37.725,37.865
39.269,36.264,35.836999999999996,38.97,37.689,37.863
39.154,36.195,35.782,38.935,37.643,37.858000000000004
39.032,36.122,35.734,38.903,37.586,37.848
38.906,36.046,35.694,38.873000000000005,37.519,37.835
38.777,35.967,35.661,38.846,37.44,37.817
38.648,35.883,35.634,38.821999999999996,37.353,37.795
38.518,35.797,35.613,38.8,37.258,37.768
38.388000000000005,35.708,35.593,38.78,37.16,37.738
38.258,35.618,35.57,38.763000000000005,37.06,37.705
38.131,35.527,35.543,38.748000000000005,36.961999999999996,37.669000000000004
38.006,35.436,35.514,38.734,36.867,37.633
37.885,35.346,35.484,38.72,36.777,37.594
37.771,35.256,35.455999999999996,38.703,36.692,37.555
37.662,35.166,35.431,38.683,36.615,37.516
37.561,35.074,35.41,38.658,36.545,37.477
37.467,34.982,35.394,38.63,36.484,37.438
37.379,34.89,35.383,38.595,36.431,37.400999999999996
37.297,34.798,35.375,38.556,36.387,37.364000000000004
37.221,34.707,35.371,38.510999999999996,36.352,37.329
37.149,34.616,35.368,38.461999999999996,36.325,37.295
37.080999999999996,34.527,35.367,38.408,36.306,37.262
37.016,34.437,35.367,38.35,36.294000000000004,37.231
36.954,34.348,35.367,38.289,36.288000000000004,37.201
36.894,34.259,35.367,38.225,36.287,37.172
36.835,34.171,35.364000000000004,38.158,36.289,37.145
36.777,34.083,35.359,38.089,36.292,37.12
36.717,33.996,35.349000000000004,38.018,36.295,37.098
36.655,33.912,35.333,37.945,36.295,37.078
36.59,33.830999999999996,35.311,37.873000000000005,36.292,37.06
36.52,33.754,35.283,37.803000000000004,36.284,37.046
36.444,33.683,35.248000000000005,37.736,36.272,37.034
36.364000000000004,33.618,35.207,37.672,36.256,37.024
36.28,33.558,35.16,37.614000000000004,36.235,37.015
36.193000000000005,33.501999999999995,35.108000000000004,37.56,36.21,37.007
36.104,33.449,35.053000000000004,37.512,36.183,37.0
36.016,33.398,34.996,37.469,36.154,36.993
35.93,33.348,34.938,37.433,36.125,36.985
35.847,33.298,34.881,37.400999999999996,36.097,36.976
35.77,33.249,34.824,37.374,36.067,36.964
35.698,33.201,34.77,37.349000000000004,36.038000000000004,36.95
35.634,33.153,34.716,37.327,36.008,36.934
35.578,33.107,34.664,37.306,35.977,36.914
35.531,33.062,34.611999999999995,37.285,35.944,36.891
35.494,33.02,34.561,37.264,35.908,36.866
35.466,32.98,34.510999999999996,37.243,35.87,36.836999999999996
35.446999999999996,32.941,34.461999999999996,37.221,35.83,36.806
35.437,32.904,34.413000000000004,37.196999999999996,35.786,36.774
35.433,32.868,34.366,37.171,35.74,36.74
35.434,32.835,34.319,37.141,35.69,36.704
35.441,32.803000000000004,34.273,37.108000000000004,35.635999999999996,36.667
35.453,32.772,34.23,37.071999999999996,35.58,36.628
35.468,32.743,34.189,37.033,35.523,36.588
35.488,32.714,34.15,36.991,35.464,36.545
35.51,32.684,34.113,36.946999999999996,35.404,36.501
35.535,32.655,34.077,36.9,35.343,36.455999999999996
35.56,32.625,34.042,36.85,35.279,36.41
35.585,32.595,34.008,36.798,35.216,36.361999999999995
35.607,32.565,33.975,36.742,35.153,36.313
35.626,32.538000000000004,33.943000000000005,36.685,35.092,36.263000000000005
35.643,32.514,33.913000000000004,36.626,35.034,36.211
35.656,32.493,33.883,36.566,34.978,36.157
35.666,32.477,33.855,36.505,34.925,36.103
35.672,32.465,33.83,36.443000000000005,34.874,36.047
35.674,32.455999999999996,33.806999999999995,36.381,34.827,35.992
35.673,32.449,33.787,36.318000000000005,34.782,35.936
35.668,32.444,33.768,36.255,34.738,35.88
35.661,32.44,33.751,36.191,34.693000000000005,35.824
35.650999999999996,32.435,33.736,36.128,34.645,35.77
35.639,32.43,33.723,36.066,34.596,35.718
35.625,32.424,33.711,36.003,34.545,35.668
35.608000000000004,32.416,33.7,35.941,34.492,35.62
35.589,32.407,33.688,35.88,34.437,35.573
35.568000000000005,32.395,33.677,35.817,34.379,35.528
35.544000000000004,32.381,33.667,35.754,34.319,35.483000000000004
35.516999999999996,32.365,33.658,35.69,34.26,35.439
35.486,32.346,33.65,35.625,34.202,35.396
35.452,32.327,33.641999999999996,35.559,34.146,35.352
35.413000000000004,32.306,33.634,35.493,34.094,35.309
35.371,32.283,33.626999999999995,35.428000000000004,34.046,35.266999999999996
35.326,32.26,33.62,35.364000000000004,34.003,35.224000000000004
35.277,32.236,33.614000000000004,35.3,33.963,35.181
35.225,32.209,33.61,35.236,33.927,35.138000000000005
35.169000000000004,32.18,33.606,35.172,33.891999999999996,35.094
35.109,32.147,33.604,35.108000000000004,33.858000000000004,35.049
35.046,32.11,33.604,35.045,33.824,35.001999999999995
34.98,32.071,33.606,34.982,33.79,34.954
34.913000000000004,32.028,33.609,34.919000000000004,33.755,34.904
34.845,31.984,33.611,34.856,33.72,34.854
34.775999999999996,31.938000000000002,33.613,34.792,33.685,34.804
34.705999999999996,31.891,33.615,34.728,33.65,34.754
34.635,31.840999999999998,33.617,34.662,33.617,34.705999999999996
34.564,31.79,33.618,34.595,33.586,34.661
34.494,31.738000000000003,33.619,34.529,33.556999999999995,34.619
34.424,31.684,33.619,34.464,33.53,34.58
34.357,31.63,33.619,34.4,33.505,34.542
34.292,31.575,33.62,34.339,33.482,34.505
34.23,31.521,33.62,34.279,33.459,34.47
34.171,31.467,33.619,34.222,33.437,34.435
34.116,31.413,33.617,34.167,33.416,34.400999999999996
34.063,31.36,33.614000000000004,34.114000000000004,33.394,34.368
34.014,31.308000000000003,33.61,34.064,33.371,34.336999999999996
33.966,31.258000000000003,33.605,34.016,33.348,34.306999999999995
33.921,31.21,33.599000000000004,33.97,33.325,34.277
33.878,31.165,33.593,33.925,33.302,34.249
33.836,31.125,33.586,33.883,33.281,34.222
33.795,31.090999999999998,33.578,33.844,33.26,34.196999999999996
33.754,31.065,33.571,33.815,33.24,34.172
33.715,31.046,33.563,33.799,33.22,34.148
33.675,31.039,33.554,33.793,33.201,34.124
33.637,31.046,33.546,33.794000000000004,33.183,34.099000000000004
33.598,31.073,33.538000000000004,33.8,33.164,34.074
33.559,31.128,33.532,33.805,33.144,34.047
33.52,31.218000000000004,33.532,33.805,33.122,34.019
33.481,31.354,33.54,33.798,33.097,33.989000000000004
33.442,31.546,33.556,33.78,33.07,33.958
33.405,31.801,33.585,33.751999999999995,33.042,33.926
33.368,32.125,33.629,33.713,33.012,33.896
33.334,32.519,33.692,33.664,32.982,33.866
33.302,32.982,33.774,33.606,32.951,33.839
33.273,33.507,33.878,33.54,32.921,33.816
33.247,34.083,34.003,33.469,32.891999999999996,33.796
33.224000000000004,34.698,34.153,33.395,32.868,33.779
33.204,35.338,34.326,33.317,32.851,33.765
33.187,35.99,34.523,33.24,32.843,33.751999999999995
33.173,36.638000000000005,34.741,33.166,32.848,33.74
33.162,37.268,34.976,33.096,32.868,33.729
33.154,37.868,35.227,33.033,32.906,33.719
33.149,38.427,35.489000000000004,32.976,32.966,33.708
33.146,38.938,35.760999999999996,32.927,33.05,33.696999999999996
33.143,39.395,36.038000000000004,32.885,33.157,33.685
33.14,39.792,36.318000000000005,32.849000000000004,33.287,33.67
33.137,40.129,36.595,32.819,33.442,33.652
33.133,40.405,36.867,32.795,33.619,33.631
33.129,40.622,37.13,32.775,33.819,33.606
33.125,40.783,37.382,32.759,34.04,33.578
33.121,40.89,37.62,32.744,34.278,33.547
33.117,40.948,37.84,32.73,34.531,33.514
33.114000000000004,40.961999999999996,38.04,32.716,34.794000000000004,33.479
33.11,40.939,38.219,32.701,35.064,33.444
33.107,40.885,38.376,32.686,35.336999999999996,33.408
33.103,40.806999999999995,38.509,32.669000000000004,35.61,33.372
33.101,40.71,38.62,32.650999999999996,35.878,33.336999999999996
33.1,40.602,38.709,32.631,36.138000000000005,33.303000000000004
33.1,40.486999999999995,38.777,32.609,36.385999999999996,33.268
33.102,40.369,38.826,32.586,36.619,33.234
33.104,40.251999999999995,38.856,32.56,36.835,33.201
33.107,40.137,38.871,32.533,37.029,33.169000000000004
33.111,40.025999999999996,38.873000000000005,32.504,37.202,33.137
33.114000000000004,39.917,38.866,32.473,37.35,33.106
33.117,39.813,38.85,32.439,37.474000000000004,33.076
33.12,39.711999999999996,38.83,32.404,37.571999999999996,33.046
33.122,39.617,38.806,32.367,37.645,33.016
33.123000000000005,39.525,38.781,32.329,37.694,32.988
33.124,39.438,38.756,32.291,37.722,32.96
33.123000000000005,39.356,38.732,32.254,37.731,32.935
33.12,39.277,38.71,32.218,37.723,32.912
33.114000000000004,39.204,38.69,32.184,37.702,32.891
33.105,39.135,38.67,32.152,37.67,32.872
33.093,39.071,38.65,32.122,37.631,32.856
33.078,39.010999999999996,38.63,32.095,37.588,32.844
33.059,38.954,38.609,32.069,37.541,32.835
33.037,38.899,38.585,32.046,37.493,32.830999999999996
33.013000000000005,38.844,38.559,32.025,37.443000000000005,32.832
32.986,38.787,38.529,32.005,37.391999999999996,32.841
32.958,38.728,38.494,31.986,37.34,32.859
32.929,38.663000000000004,38.454,31.965999999999998,37.286,32.887
32.898,38.594,38.409,31.947,37.23,32.928000000000004
32.867,38.521,38.359,31.927,37.174,32.984
32.836,38.445,38.304,31.906999999999996,37.116,33.056
32.805,38.366,38.243,31.886999999999997,37.059,33.144
32.775999999999996,38.284,38.177,31.866999999999997,37.003,33.249
32.748000000000005,38.199,38.106,31.848000000000003,36.948,33.372
32.723,38.111,38.03,31.828000000000003,36.894,33.513000000000005
32.7,38.018,37.95,31.808000000000003,36.844,33.672
32.679,37.922,37.868,31.791,36.796,33.848
32.659,37.821999999999996,37.783,31.776999999999997,36.75,34.038000000000004
32.64,37.718,37.695,31.767,36.704,34.242
32.621,37.611999999999995,37.606,31.764,36.66,34.455999999999996
32.6,37.505,37.515,31.769000000000002,36.616,34.679
32.579,37.400999999999996,37.425,31.788,36.571999999999996,34.908
32.556,37.299,37.335,31.823,36.525999999999996,35.138000000000005
32.533,37.204,37.249,31.879,36.477,35.369
32.509,37.116,37.166,31.956999999999997,36.423,35.597
32.486,37.037,37.088,32.062,36.363,35.821
32.465,36.968,37.016999999999996,32.196,36.296,36.038000000000004
32.448,36.908,36.952,32.36,36.225,36.246
32.436,36.857,36.894,32.556999999999995,36.149,36.444
32.431,36.815,36.843,32.785,36.07,36.63
32.439,36.781,36.798,33.043,35.989000000000004,36.802
32.461999999999996,36.754,36.760999999999996,33.330999999999996,35.908,36.959
32.509,36.734,36.731,33.643,35.829,37.099000000000004
32.586,36.72,36.709,33.978,35.754,37.223
32.7,36.713,36.694,34.329,35.684,37.329
32.86,36.711999999999996,36.686,34.694,35.621,37.419000000000004
33.07,36.715,36.681999999999995,35.065,35.565,37.494
33.334,36.722,36.683,35.437,35.514,37.555
33.652,36.733000000000004,36.686,35.806,35.47,37.602
34.022,36.744,36.69,36.164,35.434,37.637
34.439,36.755,36.694,36.509,35.403,37.661
34.895,36.764,36.695,36.835,35.379,37.675
35.38,36.769,36.694,37.138000000000005,35.359,37.679
35.883,36.768,36.689,37.416,35.342,37.674
36.391999999999996,36.76,36.679,37.667,35.327,37.662
36.896,36.743,36.666,37.89,35.313,37.641999999999996
37.383,36.719,36.648,38.084,35.299,37.618
37.846,36.687,36.626,38.249,35.283,37.589
38.275,36.648,36.598,38.385,35.265,37.558
38.664,36.602,36.565,38.493,35.245,37.527
39.008,36.551,36.525,38.576,35.222,37.494
39.303000000000004,36.493,36.481,38.634,35.196999999999996,37.461
39.546,36.43,36.431,38.671,35.171,37.429
39.739000000000004,36.361,36.376999999999995,38.69,35.143,37.396
39.883,36.289,36.318000000000005,38.691,35.114000000000004,37.364000000000004
39.978,36.211999999999996,36.256,38.679,35.086,37.332
40.03,36.133,36.191,38.655,35.056999999999995,37.302
40.041,36.051,36.123000000000005,38.622,35.03,37.274
40.016999999999996,35.968,36.055,38.580999999999996,35.004,37.248000000000005
39.963,35.885,35.985,38.535,34.98,37.225
39.884,35.801,35.915,38.488,34.957,37.203
39.786,35.718,35.844,38.438,34.935,37.184
39.673,35.633,35.772,38.389,34.912,37.165
39.551,35.548,35.702,38.339,34.888000000000005,37.147
39.424,35.461999999999996,35.634,38.291,34.861999999999995,37.128
39.294000000000004,35.373000000000005,35.568000000000005,38.244,34.832,37.106
39.163000000000004,35.282,35.504,38.201,34.799,37.080999999999996
39.034,35.188,35.442,38.161,34.762,37.054
38.908,35.091,35.382,38.124,34.721,37.025
38.786,34.993,35.323,38.091,34.675,36.994
38.669000000000004,34.893,35.266,38.061,34.626,36.961
38.556999999999995,34.792,35.21,38.033,34.573,36.926
38.45,34.692,35.155,38.009,34.516999999999996,36.891999999999996
38.347,34.593,35.1,37.986,34.46,36.857
38.247,34.494,35.046,37.966,34.402,36.823
38.152,34.398,34.991,37.946,34.345,36.79
38.06,34.305,34.936,37.927,34.288000000000004,36.759
37.971,34.215,34.88,37.908,34.232,36.731
37.887,34.129,34.824,37.885,34.178000000000004,36.705
37.806,34.047,34.768,37.859,34.125,36.681999999999995
37.728,33.969,34.714,37.828,34.073,36.66
37.655,33.895,34.661,37.791,34.024,36.639
37.585,33.824,34.609,37.747,33.975,36.618
37.519,33.757,34.559,37.696,33.927,36.597
37.457,33.691,34.509,37.64,33.878,36.575
37.396,33.628,34.46,37.578,33.828,36.553000000000004
37.336999999999996,33.564,34.412,37.510999999999996,33.778,36.531
37.275999999999996,33.501999999999995,34.365,37.442,33.725,36.51
37.214,33.442,34.318000000000005,37.373000000000005,33.67,36.489000000000004
37.149,33.384,34.271,37.306,33.614000000000004,36.471
37.080999999999996,33.329,34.224000000000004,37.243,33.558,36.455
37.010999999999996,33.277,34.178000000000004,37.185,33.504,36.441
36.94,33.228,34.134,37.132,33.451,36.429
36.867,33.181999999999995,34.091,37.085,33.402,36.419000000000004
36.793,33.138000000000005,34.051,37.044000000000004,33.355,36.409
36.718,33.095,34.015,37.008,33.312,36.4
36.643,33.054,33.981,36.979,33.27,36.39
36.568000000000005,33.014,33.949,36.955999999999996,33.231,36.378
36.494,32.976,33.919000000000004,36.941,33.193000000000005,36.365
36.423,32.938,33.89,36.931999999999995,33.155,36.351
36.354,32.900999999999996,33.861999999999995,36.929,33.117,36.335
36.289,32.865,33.834,36.93,33.078,36.317
36.229,32.829,33.805,36.934,33.039,36.299
36.175,32.793,33.775999999999996,36.94,32.999,36.28
36.126999999999995,32.756,33.747,36.946,32.961,36.259
36.086,32.718,33.716,36.951,32.924,36.236999999999995
36.052,32.68,33.685,36.955,32.888000000000005,36.214
36.024,32.643,33.652,36.958,32.856,36.188
36.004,32.606,33.619,36.958,32.826,36.161
35.991,32.571999999999996,33.585,36.955999999999996,32.799,36.132
35.984,32.539,33.552,36.95,32.773,36.102
35.982,32.509,33.519,36.94,32.749,36.071
35.986,32.481,33.486999999999995,36.926,32.725,36.039
35.994,32.454,33.455,36.907,32.7,36.006
36.006,32.429,33.424,36.882,32.676,35.97
36.02,32.405,33.393,36.853,32.650999999999996,35.931999999999995
36.036,32.383,33.361,36.818000000000005,32.625,35.891999999999996
36.052,32.361,33.329,36.78,32.599000000000004,35.849000000000004
36.067,32.341,33.297,36.739000000000004,32.571999999999996,35.803000000000004
36.083,32.323,33.266,36.693000000000005,32.546,35.755
36.097,32.306,33.236999999999995,36.645,32.521,35.705
36.11,32.291,33.21,36.593,32.497,35.654
36.123000000000005,32.279,33.184,36.538000000000004,32.475,35.603
36.134,32.266999999999996,33.159,36.481,32.455,35.55
36.144,32.255,33.135,36.423,32.437,35.499
36.150999999999996,32.243,33.111999999999995,36.365,32.42,35.448
36.155,32.23,33.092,36.306999999999995,32.404,35.4
36.154,32.215,33.076,36.249,32.389,35.353
36.149,32.199,33.068000000000005,36.19,32.374,35.309
36.138000000000005,32.181999999999995,33.069,36.13,32.358000000000004,35.266999999999996
36.122,32.163000000000004,33.083,36.069,32.34,35.227
36.1,32.144,33.113,36.008,32.318000000000005,35.191
36.074,32.123000000000005,33.164,35.948,32.294000000000004,35.157
36.043,32.1,33.238,35.887,32.265,35.125
36.007,32.076,33.34,35.828,32.234,35.095
35.967,32.05,33.471,35.77,32.199,35.068000000000005
35.923,32.022,33.631,35.711999999999996,32.161,35.042
35.876,31.991999999999997,33.82,35.655,32.122,35.016999999999996
35.826,31.961,34.038000000000004,35.598,32.085,34.991
35.774,31.928,34.282,35.542,32.05,34.963
35.72,31.892,34.548,35.486999999999995,32.019,34.933
35.666,31.853,34.833,35.431,31.991999999999997,34.902
35.611999999999995,31.811,35.133,35.37,31.971,34.868
35.556999999999995,31.765,35.445,35.302,31.955,34.834
35.501,31.715999999999998,35.762,35.226,31.944000000000003,34.798
35.443000000000005,31.666,36.080999999999996,35.146,31.936,34.763000000000005
35.384,31.614,36.396,35.065,31.930999999999997,34.728
35.321999999999996,31.563000000000002,36.703,34.986999999999995,31.928,34.694
35.259,31.511999999999997,37.0,34.912,31.926,34.662
35.194,31.462,37.281,34.845,31.928,34.631
35.128,31.413,37.542,34.787,31.934,34.601
35.062,31.364,37.78,34.736,31.945999999999998,34.571
34.998000000000005,31.316,37.993,34.694,31.967,34.542
34.934,31.268,38.18,34.659,31.997,34.513000000000005
34.873000000000005,31.22,38.341,34.629,32.039,34.486
34.813,31.171,38.476,34.604,32.096,34.46
34.754,31.123,38.586999999999996,34.583,32.17,34.436
34.696999999999996,31.076,38.673,34.563,32.262,34.414
34.641999999999996,31.03,38.738,34.545,32.371,34.394
34.588,30.987,38.782,34.525999999999996,32.498000000000005,34.376999999999995
34.536,30.947,38.808,34.507,32.643,34.361
34.486999999999995,30.910999999999998,38.818000000000005,34.486999999999995,32.805,34.347
34.441,30.878,38.814,34.465,32.984,34.333
34.398,30.849,38.8,34.44,33.176,34.32
34.357,30.825,38.775999999999996,34.413000000000004,33.378,34.306999999999995
34.318000000000005,30.808000000000003,38.745,34.385,33.585,34.293
34.281,30.798000000000002,38.709,34.355,33.794000000000004,34.278
34.246,30.799,38.67,34.325,33.999,34.260999999999996
34.211999999999996,30.811999999999998,38.629,34.294000000000004,34.196,34.243
34.18,30.840999999999998,38.585,34.263000000000005,34.383,34.222
34.148,30.896,38.54,34.231,34.555,34.199
34.117,30.983,38.493,34.201,34.71,34.173
34.086,31.113000000000003,38.445,34.173,34.846,34.145
34.055,31.296,38.396,34.146,34.964,34.115
34.025,31.54,38.348,34.121,35.062,34.083
33.995,31.851999999999997,38.3,34.098,35.141,34.05
33.965,32.235,38.254,34.076,35.203,34.016
33.935,32.689,38.209,34.056,35.247,33.982
33.906,33.21,38.165,34.036,35.274,33.949
33.876999999999995,33.789,38.122,34.019,35.284,33.917
33.85,34.415,38.079,34.001999999999995,35.28,33.887
33.824,35.071999999999996,38.034,33.986999999999995,35.263000000000005,33.857
33.8,35.747,37.986999999999995,33.972,35.233000000000004,33.83
33.777,36.423,37.935,33.958,35.194,33.804
33.756,37.086999999999996,37.878,33.943000000000005,35.148,33.781
33.736999999999995,37.725,37.815,33.928000000000004,35.096,33.76
33.719,38.323,37.746,33.911,35.041,33.74
33.702,38.871,37.672,33.893,34.985,33.721
33.687,39.361,37.591,33.873000000000005,34.931,33.701
33.672,39.786,37.505,33.853,34.88,33.679
33.657,40.144,37.413000000000004,33.830999999999996,34.832,33.657
33.643,40.433,37.318000000000005,33.809,34.789,33.635
33.629,40.656,37.221,33.786,34.75,33.611999999999995
33.615,40.814,37.122,33.760999999999996,34.713,33.588
33.602,40.914,37.023,33.735,34.679,33.565
33.59,40.961000000000006,36.924,33.708,34.646,33.543
33.579,40.961999999999996,36.827,33.68,34.613,33.522
33.569,40.924,36.734,33.65,34.58,33.501
33.56,40.854,36.644,33.62,34.547,33.482
33.551,40.759,36.559,33.59,34.512,33.464
33.543,40.645,36.479,33.559,34.477,33.45
33.537,40.518,36.403,33.528,34.441,33.44
33.532,40.385999999999996,36.333,33.497,34.405,33.438
33.528,40.25,36.269,33.468,34.369,33.444
33.525999999999996,40.115,36.211,33.439,34.334,33.461
33.524,39.984,36.161,33.409,34.298,33.491
33.524,39.859,36.118,33.378,34.262,33.535
33.524,39.74,36.083,33.347,34.225,33.595
33.524,39.629,36.054,33.314,34.185,33.673
33.524,39.524,36.033,33.282,34.144,33.769
33.524,39.426,36.016999999999996,33.249,34.101,33.883
33.524,39.334,36.005,33.216,34.056999999999995,34.014
33.523,39.249,35.996,33.184,34.012,34.163000000000004
33.522,39.168,35.988,33.153,33.967,34.328
33.52,39.093,35.982,33.123000000000005,33.923,34.508
33.516999999999996,39.02,35.976,33.093,33.881,34.701
33.513000000000005,38.951,35.972,33.065,33.841,34.906
33.506,38.885,35.967,33.037,33.804,35.12
33.497,38.821,35.961999999999996,33.009,33.77,35.341
33.486,38.759,35.953,32.982,33.739000000000004,35.567
33.472,38.696999999999996,35.942,32.957,33.71,35.797
33.458,38.635,35.926,32.935,33.684,36.027
33.444,38.57,35.907,32.917,33.66,36.256
33.43,38.501999999999995,35.883,32.908,33.638000000000005,36.482
33.415,38.431,35.855,32.909,33.618,36.701
33.399,38.356,35.821,32.923,33.598,36.913000000000004
33.382,38.277,35.783,32.955,33.58,37.116
33.361,38.193000000000005,35.74,33.007,33.563,37.308
33.336999999999996,38.105,35.693000000000005,33.082,33.549,37.486999999999995
33.31,38.013000000000005,35.641999999999996,33.184,33.536,37.65
33.282,37.919000000000004,35.588,33.314,33.525,37.798
33.253,37.823,35.53,33.476,33.515,37.929
33.223,37.726,35.47,33.668,33.506,38.043
33.194,37.626999999999995,35.409,33.891,33.499,38.14
33.166,37.528,35.345,34.141999999999996,33.494,38.22
33.135999999999996,37.428000000000004,35.28,34.418,33.491,38.285
33.105,37.33,35.214,34.718,33.488,38.334
33.073,37.232,35.147,35.036,33.486,38.37
33.039,37.129,35.080999999999996,35.368,33.485,38.393
33.004,37.024,35.013000000000005,35.71,33.483000000000004,38.404
32.969,36.918,34.945,36.056999999999995,33.481,38.405
32.935,36.816,34.875,36.403,33.478,38.395
32.903,36.72,34.804,36.745,33.473,38.379
32.873000000000005,36.634,34.733000000000004,37.077,33.467,38.355
32.845,36.56,34.661,37.396,33.459,38.327
32.82,36.499,34.59,37.698,33.449,38.295
32.796,36.451,34.52,37.98,33.436,38.26
32.775,36.417,34.45,38.24,33.419000000000004,38.225
32.759,36.396,34.379,38.475,33.400999999999996,38.192
32.749,36.387,34.309,38.685,33.379,38.16
32.749,36.389,34.239000000000004,38.869,33.357,38.128
32.763000000000005,36.4,34.168,39.027,33.333,38.097
32.794000000000004,36.418,34.097,39.161,33.306999999999995,38.067
32.848,36.442,34.025,39.27,33.28,38.039
32.931,36.47,33.953,39.356,33.251999999999995,38.012
33.049,36.5,33.881,39.42,33.221,37.986
33.207,36.531,33.809,39.465,33.19,37.96
33.409,36.561,33.738,39.492,33.158,37.935
33.657,36.588,33.668,39.501999999999995,33.126,37.91
33.952,36.61,33.601,39.496,33.094,37.884
34.291,36.624,33.536,39.478,33.063,37.855
34.67,36.63,33.476,39.449,33.035,37.821999999999996
35.082,36.624,33.418,39.41,33.008,37.785
35.519,36.608000000000004,33.364000000000004,39.365,32.984,37.744
35.972,36.58,33.312,39.314,32.961,37.698
36.434,36.541,33.262,39.26,32.939,37.649
36.894,36.492,33.216,39.204,32.917,37.599000000000004
37.344,36.435,33.174,39.148,32.895,37.548
37.775999999999996,36.37,33.135999999999996,39.094,32.872,37.497
38.181,36.3,33.101,39.042,32.849000000000004,37.446
38.553000000000004,36.226,33.07,38.993,32.823,37.397
38.885999999999996,36.148,33.042,38.945,32.794000000000004,37.348
39.175,36.068000000000005,33.016999999999996,38.9,32.764,37.302
39.417,35.988,32.995,38.856,32.734,37.259
39.611999999999995,35.909,32.975,38.816,32.704,37.218
39.76,35.832,32.957,38.779,32.675,37.181
39.861999999999995,35.758,32.941,38.745,32.648,37.147
39.921,35.686,32.928000000000004,38.714,32.623000000000005,37.117
39.941,35.617,32.916,38.685,32.602,37.09
39.928000000000004,35.549,32.904,38.657,32.584,37.066
39.885999999999996,35.483000000000004,32.891,38.629,32.569,37.043
39.821999999999996,35.416,32.879,38.599000000000004,32.558,37.024
39.742,35.348,32.867,38.565,32.548,37.006
39.65,35.279,32.854,38.529,32.539,36.989000000000004
39.551,35.207,32.841,38.489000000000004,32.532,36.973
39.449,35.132,32.825,38.445,32.525,36.959
39.344,35.054,32.808,38.396,32.52,36.944
39.241,34.973,32.789,38.343,32.515,36.928000000000004
39.139,34.891,32.768,38.286,32.508,36.912
39.04,34.806999999999995,32.746,38.227,32.5,36.897
38.944,34.723,32.721,38.166,32.49,36.882
38.85,34.639,32.694,38.106,32.48,36.869
38.76,34.554,32.665,38.047,32.467,36.857
38.672,34.469,32.635999999999996,37.991,32.454,36.846
38.588,34.385,32.605,37.938,32.438,36.834
38.507,34.303000000000004,32.574,37.89,32.423,36.821999999999996
38.43,34.224000000000004,32.541,37.847,32.408,36.809
38.357,34.148,32.508,37.806999999999995,32.395,36.796
38.288000000000004,34.077,32.474000000000004,37.772,32.384,36.783
38.223,34.01,32.441,37.742,32.373000000000005,36.769
38.161,33.946999999999996,32.408,37.717,32.363,36.754
38.102,33.889,32.375,37.698,32.353,36.738
38.046,33.834,32.343,37.684,32.342,36.72
37.991,33.783,32.311,37.677,32.332,36.699
37.937,33.734,32.279,37.676,32.32,36.676
37.882,33.687,32.248000000000005,37.681,32.308,36.649
37.827,33.641999999999996,32.217,37.689,32.296,36.621
37.77,33.599000000000004,32.188,37.7,32.284,36.591
37.711999999999996,33.558,32.162,37.711999999999996,32.273,36.559
37.650999999999996,33.519,32.141999999999996,37.724000000000004,32.264,36.525999999999996
37.588,33.481,32.13,37.735,32.256,36.49
37.524,33.444,32.128,37.745,32.25,36.452
37.457,33.406,32.139,37.753,32.245,36.412
37.388000000000005,33.367,32.17,37.758,32.242,36.369
37.318000000000005,33.327,32.224000000000004,37.76,32.238,36.321999999999996
37.247,33.286,32.306,37.758,32.234,36.273
37.176,33.245,32.421,37.751,32.229,36.222
37.106,33.205999999999996,32.571999999999996,37.739000000000004,32.223,36.168
37.038000000000004,33.169000000000004,32.76,37.721,32.216,36.115
36.974000000000004,33.135,32.986999999999995,37.698,32.208,36.06
36.912,33.106,33.249,37.671,32.2,36.005
36.853,33.080999999999996,33.546,37.639,32.192,35.949
36.798,33.06,33.872,37.604,32.184,35.891999999999996
36.746,33.044000000000004,34.225,37.566,32.176,35.835
36.7,33.032,34.598,37.525,32.167,35.777
36.66,33.024,34.986999999999995,37.481,32.158,35.717
36.628,33.02,35.384,37.433,32.147,35.656
36.606,33.018,35.781,37.382,32.135,35.594
36.6,33.016999999999996,36.173,37.33,32.121,35.534
36.611,33.016999999999996,36.552,37.275999999999996,32.107,35.474000000000004
36.635999999999996,33.015,36.913000000000004,37.222,32.093,35.415
36.67,33.012,37.251999999999995,37.168,32.079,35.359
36.71,33.008,37.565,37.115,32.066,35.305
36.751,33.004,37.848,37.063,32.055,35.255
36.792,33.001,38.1,37.01,32.045,35.208
36.828,32.998000000000005,38.318000000000005,36.959,32.036,35.163000000000004
36.857,32.996,38.504,36.908,32.029,35.121
36.878,32.994,38.66,36.858000000000004,32.023,35.083
36.89,32.993,38.785,36.808,32.019,35.047
36.893,32.993,38.884,36.758,32.014,35.013000000000005
36.888000000000005,32.994,38.958,36.708,32.01,34.98
36.875,32.994,39.010999999999996,36.655,32.007,34.948
36.856,32.994,39.047,36.599000000000004,32.003,34.916
36.830999999999996,32.99,39.067,36.539,32.0,34.883
36.802,32.984,39.076,36.474000000000004,31.996,34.85
36.771,32.975,39.075,36.405,31.991,34.816
36.738,32.961999999999996,39.066,36.330999999999996,31.984,34.781
36.704,32.944,39.051,36.255,31.975,34.744
36.67,32.923,39.03,36.175,31.964000000000002,34.707
36.638000000000005,32.899,39.004,36.094,31.951999999999998,34.669000000000004
36.607,32.871,38.974000000000004,36.012,31.938000000000002,34.631
36.576,32.842,38.939,35.93,31.924,34.594
36.546,32.81,38.899,35.847,31.913,34.558
36.516999999999996,32.777,38.854,35.764,31.906,34.523
36.489000000000004,32.744,38.806,35.683,31.906,34.489000000000004
36.461999999999996,32.71,38.754,35.602,31.916,34.457
36.436,32.677,38.701,35.525,31.936999999999998,34.427
36.409,32.644,38.647,35.451,31.971999999999998,34.4
36.38,32.611999999999995,38.594,35.38,32.023,34.375
36.35,32.578,38.544000000000004,35.313,32.09,34.353
36.316,32.543,38.498000000000005,35.25,32.176,34.334
36.278,32.505,38.455,35.191,32.279,34.317
36.236999999999995,32.464,38.417,35.135,32.399,34.303000000000004
36.192,32.42,38.383,35.083,32.536,34.29
36.144,32.373000000000005,38.353,35.033,32.686,34.278
36.093,32.326,38.326,34.986999999999995,32.849000000000004,34.268
36.039,32.278,38.303000000000004,34.944,33.02,34.259
35.981,32.232,38.28,34.903,33.196,34.249
35.922,32.187,38.257,34.864000000000004,33.375,34.239000000000004
35.861,32.146,38.23,34.827,33.552,34.228
35.798,32.109,38.199,34.793,33.724000000000004,34.215
35.732,32.079,38.162,34.762,33.888000000000005,34.201
35.665,32.058,38.117,34.734,34.042,34.185
35.598,32.048,38.064,34.708,34.183,34.166
35.53,32.052,38.001,34.686,34.309,34.147
35.465,32.074,37.93,34.665,34.418,34.125
35.402,32.12,37.85,34.646,34.508,34.102
35.343,32.195,37.762,34.629,34.580999999999996,34.078
35.287,32.306999999999995,37.669000000000004,34.611999999999995,34.635999999999996,34.053000000000004
35.235,32.464,37.571999999999996,34.597,34.675,34.028
35.187,32.669000000000004,37.471,34.583,34.696999999999996,34.003
35.141999999999996,32.93,37.369,34.57,34.705,33.979
35.099000000000004,33.247,37.268,34.558,34.702,33.955
35.06,33.62,37.168,34.547,34.688,33.931999999999995
35.023,34.047,37.071,34.535,34.666,33.908
34.988,34.521,36.98,34.523,34.637,33.883
34.954,35.034,36.893,34.508,34.603,33.859
34.921,35.575,36.814,34.492,34.566,33.834
34.888000000000005,36.13,36.741,34.474000000000004,34.528,33.808
34.855,36.688,36.678000000000004,34.453,34.491,33.781
34.821999999999996,37.236999999999995,36.622,34.43,34.452,33.753
34.788000000000004,37.765,36.574,34.404,34.413000000000004,33.723
34.754,38.262,36.532,34.375,34.374,33.691
34.72,38.718,36.495,34.344,34.333,33.658
34.685,39.128,36.463,34.31,34.293,33.624
34.650999999999996,39.488,36.435,34.275999999999996,34.253,33.586999999999996
34.618,39.795,36.41,34.24,34.211999999999996,33.55
34.584,40.051,36.387,34.202,34.171,33.513000000000005
34.55,40.255,36.365,34.164,34.13,33.476
34.515,40.41,36.344,34.125,34.091,33.441
34.479,40.52,36.321,34.085,34.055,33.406
34.443000000000005,40.589,36.298,34.044000000000004,34.022,33.375
34.407,40.622,36.273,34.003,33.993,33.346
34.371,40.624,36.246,33.961,33.967,33.321
34.336999999999996,40.599000000000004,36.216,33.918,33.946,33.3
34.303000000000004,40.551,36.184,33.876,33.928000000000004,33.284
34.27,40.485,36.15,33.834,33.913000000000004,33.272
34.239000000000004,40.404,36.114000000000004,33.791,33.9,33.264
34.21,40.31,36.074,33.748000000000005,33.888000000000005,33.262
34.183,40.207,36.03,33.705,33.874,33.266999999999996
34.16,40.099000000000004,35.98,33.661,33.858000000000004,33.281
34.14,39.986999999999995,35.926,33.616,33.839,33.306
34.125,39.874,35.867,33.571,33.816,33.345
34.111999999999995,39.763000000000005,35.804,33.525999999999996,33.789,33.4
34.102,39.656,35.738,33.48,33.757,33.474000000000004
34.094,39.554,35.668,33.434,33.723,33.569
34.088,39.458,35.597,33.388000000000005,33.686,33.686
34.082,39.371,35.524,33.343,33.65,33.824
34.076,39.29,35.452,33.298,33.615,33.986
34.07,39.214,35.38,33.254,33.583,34.17
34.063,39.144,35.309,33.21,33.556,34.376
34.056999999999995,39.075,35.238,33.166,33.533,34.602
34.051,39.008,35.169000000000004,33.122,33.514,34.847
34.044000000000004,38.941,35.1,33.077,33.5,35.108000000000004
34.038000000000004,38.873000000000005,35.031,33.033,33.489000000000004,35.382
34.03,38.804,34.963,32.99,33.483000000000004,35.665
34.021,38.733000000000004,34.895,32.949,33.48,35.954
34.010999999999996,38.659,34.827,32.911,33.479,36.244
33.998000000000005,38.582,34.758,32.878,33.479,36.532
33.984,38.501,34.688,32.851,33.482,36.816
33.968,38.416,34.618,32.832,33.485,37.091
33.952,38.328,34.548,32.824,33.491,37.354
33.935,38.235,34.476,32.829,33.497,37.604
33.918,38.137,34.406,32.849000000000004,33.505,37.838
33.900999999999996,38.036,34.335,32.888000000000005,33.512,38.055
33.884,37.93,34.264,32.948,33.518,38.253
33.867,37.821999999999996,34.193000000000005,33.032,33.523,38.431
33.852,37.713,34.122,33.141999999999996,33.525999999999996,38.586999999999996
33.836,37.603,34.051,33.281,33.528,38.722
33.821,37.494,33.982,33.45,33.527,38.836
33.805,37.389,33.914,33.648,33.525,38.931
33.789,37.29,33.847,33.876999999999995,33.521,39.007
33.773,37.2,33.781,34.134,33.516,39.065
33.758,37.118,33.719,34.418,33.510999999999996,39.108000000000004
33.744,37.047,33.659,34.726,33.506,39.137
33.732,36.986,33.603,35.053000000000004,33.501999999999995,39.153
33.722,36.934,33.549,35.396,33.5,39.158
33.713,36.893,33.496,35.748000000000005,33.499,39.150999999999996
33.705,36.861999999999995,33.446,36.106,33.498000000000005,39.135999999999996
33.696,36.842,33.396,36.464,33.498000000000005,39.113
33.687,36.832,33.347,36.817,33.498000000000005,39.084
33.676,36.83,33.299,37.162,33.498000000000005,39.052
33.664,36.836999999999996,33.25,37.494,33.497,39.019
33.65,36.85,33.203,37.808,33.495,38.985
33.635,36.869,33.156,38.101,33.489000000000004,38.953
33.62,36.893,33.111,38.371,33.481,38.924
33.604,36.921,33.067,38.616,33.469,38.897
33.588,36.951,33.025,38.833,33.453,38.872
33.571,36.981,32.985,39.023,33.433,38.848
33.553000000000004,37.009,32.946999999999996,39.185,33.41,38.826
33.531,37.034,32.91,39.321999999999996,33.382,38.805
33.507,37.056,32.874,39.433,33.352,38.785
33.478,37.075,32.84,39.521,33.32,38.766
33.445,37.089,32.806999999999995,39.586999999999996,33.286,38.748000000000005
33.408,37.099000000000004,32.775999999999996,39.633,33.253,38.732
33.369,37.103,32.746,39.662,33.221,38.716
33.328,37.101,32.719,39.676,33.191,38.699
33.288000000000004,37.094,32.694,39.677,33.164,38.68
33.25,37.083,32.67,39.666,33.14,38.659
33.214,37.066,32.649,39.646,33.12,38.635
33.18,37.043,32.63,39.618,33.103,38.608000000000004
33.149,37.010999999999996,32.614000000000004,39.585,33.088,38.579
33.121,36.97,32.599000000000004,39.548,33.076,38.546
33.096,36.92,32.586,39.509,33.064,38.510999999999996
33.075,36.86,32.571999999999996,39.469,33.053000000000004,38.472
33.056999999999995,36.793,32.556999999999995,39.429,33.041,38.431999999999995
33.042,36.718,32.541,39.389,33.028,38.389
33.029,36.635999999999996,32.524,39.349000000000004,33.015,38.344
33.018,36.55,32.505,39.308,33.001,38.297
33.007,36.46,32.483000000000004,39.266999999999996,32.986,38.249
32.998000000000005,36.367,32.46,39.226,32.972,38.2
32.989000000000004,36.272,32.434,39.184,32.957,38.15
32.979,36.175,32.408,39.141999999999996,32.942,38.1
32.969,36.078,32.38,39.101,32.928000000000004,38.051
32.958,35.98,32.352,39.063,32.915,38.003
32.946999999999996,35.882,32.321,39.025999999999996,32.903,37.955999999999996
32.938,35.785,32.289,38.991,32.891999999999996,37.911
32.934,35.69,32.256,38.955999999999996,32.882,37.868
32.937,35.597,32.221,38.921,32.873000000000005,37.828
32.953,35.506,32.185,38.885,32.865,37.789
32.988,35.417,32.148,38.846,32.86,37.753
33.048,35.329,32.109,38.805,32.857,37.719
33.139,35.242,32.07,38.760999999999996,32.856,37.686
33.266999999999996,35.155,32.03,38.711,32.857,37.655
33.439,35.071,31.991,38.658,32.859,37.623000000000005
33.658,34.988,31.951,38.599000000000004,32.861999999999995,37.592
33.927,34.909,31.91,38.535,32.863,37.562
34.247,34.833,31.869,38.465,32.864000000000004,37.532
34.613,34.76,31.828000000000003,38.391999999999996,32.864000000000004,37.503
35.023,34.691,31.787,38.315,32.863,37.475
35.468,34.626,31.747,38.235,32.861,37.446999999999996
35.939,34.565,31.708000000000002,38.153,32.859,37.42
36.427,34.506,31.67,38.071999999999996,32.857,37.391999999999996
36.921,34.45,31.633000000000003,37.991,32.857,37.365
37.411,34.395,31.598000000000003,37.914,32.856,37.336999999999996
37.885,34.34,31.565,37.84,32.856,37.309
38.335,34.285,31.533,37.77,32.856,37.279
38.753,34.23,31.506,37.705999999999996,32.855,37.248000000000005
39.132,34.175,31.487,37.647,32.853,37.216
39.468,34.119,31.480999999999998,37.596,32.85,37.184
39.758,34.062,31.493000000000002,37.551,32.845,37.150999999999996
40.001,34.005,31.528000000000002,37.512,32.836999999999996,37.117
40.199,33.946999999999996,31.592,37.48,32.828,37.082
40.353,33.889,31.69,37.454,32.817,37.047
40.465,33.83,31.826999999999998,37.433,32.808,37.010999999999996
40.539,33.772,32.005,37.415,32.799,36.974000000000004
40.578,33.715,32.226,37.4,32.793,36.935
40.588,33.66,32.489000000000004,37.385999999999996,32.789,36.896
40.571999999999996,33.61,32.793,37.374,32.788000000000004,36.854
40.534,33.563,33.133,37.363,32.79,36.811
40.478,33.521,33.504,37.352,32.794000000000004,36.764
40.407,33.484,33.899,37.341,32.799,36.714
40.323,33.449,34.31,37.328,32.804,36.661
40.231,33.416,34.729,37.314,32.809,36.606
40.132,33.387,35.148,37.298,32.812,36.549
40.03,33.359,35.56,37.275999999999996,32.813,36.49
39.928000000000004,33.334,35.959,37.25,32.811,36.429
39.827,33.312,36.336999999999996,37.22,32.806999999999995,36.366
39.728,33.294000000000004,36.689,37.185,32.8,36.304
39.631,33.279,37.012,37.146,32.789,36.241
39.536,33.266,37.303000000000004,37.104,32.775999999999996,36.179
39.443000000000005,33.257,37.56,37.056999999999995,32.760999999999996,36.119
39.353,33.251,37.784,37.007,32.743,36.06
39.266,33.248000000000005,37.975,36.953,32.725,36.003
39.181999999999995,33.247,38.134,36.894,32.705,35.946
39.103,33.249,38.262,36.832,32.687,35.891999999999996
39.028,33.251999999999995,38.363,36.766999999999996,32.67,35.838
38.959,33.256,38.441,36.699,32.655,35.787
38.896,33.260999999999996,38.497,36.628,32.643,35.736
38.839,33.265,38.535,36.555,32.634,35.685
38.787,33.268,38.555,36.479,32.628,35.634
38.74,33.269,38.56,36.402,32.625,35.583
38.696,33.265,38.552,36.324,32.624,35.53
38.654,33.257,38.533,36.245,32.624,35.477
38.611,33.245,38.506,36.166,32.626999999999995,35.423
38.568000000000005,33.228,38.472,36.086,32.632,35.369
38.522,33.208,38.431999999999995,36.006,32.64,35.317
38.473,33.186,38.388000000000005,35.927,32.650999999999996,35.266999999999996
38.42,33.162,38.341,35.849000000000004,32.669000000000004,35.217
38.363,33.135999999999996,38.293,35.771,32.695,35.17
38.3,33.109,38.244,35.694,32.731,35.124
38.232,33.082,38.195,35.617,32.777,35.079
38.157,33.053000000000004,38.147,35.54,32.835,35.036
38.077,33.024,38.099000000000004,35.464,32.905,34.992
37.993,32.993,38.053000000000004,35.39,32.989000000000004,34.949
37.906,32.961999999999996,38.009,35.319,33.085,34.906
37.82,32.929,37.969,35.249,33.193000000000005,34.864000000000004
37.735,32.895,37.934,35.181999999999995,33.311,34.82
37.655,32.86,37.903,35.116,33.438,34.777
37.578,32.821999999999996,37.878,35.053000000000004,33.571,34.734
37.508,32.782,37.856,34.992,33.709,34.691
37.444,32.739000000000004,37.836999999999996,34.931999999999995,33.849000000000004,34.65
37.387,32.694,37.821,34.875,33.988,34.611
37.338,32.649,37.805,34.82,34.123000000000005,34.573
37.296,32.603,37.786,34.766,34.25,34.538000000000004
37.260999999999996,32.556999999999995,37.763000000000005,34.713,34.369,34.505
37.234,32.510999999999996,37.735,34.661,34.477,34.474000000000004
37.213,32.466,37.7,34.61,34.573,34.446
37.199,32.419000000000004,37.658,34.559,34.656,34.42
37.191,32.372,37.608000000000004,34.51,34.724000000000004,34.395
37.189,32.325,37.549,34.463,34.775,34.371
37.193000000000005,32.277,37.481,34.418,34.811,34.347
37.201,32.228,37.404,34.374,34.833,34.321999999999996
37.213,32.181,37.319,34.332,34.84,34.295
37.226,32.135,37.227,34.289,34.835,34.266999999999996
37.241,32.092,37.13,34.248000000000005,34.82,34.236
37.254,32.053000000000004,37.029,34.205999999999996,34.795,34.203
37.266999999999996,32.019,36.926,34.164,34.764,34.17
37.277,31.99,36.824,34.121,34.728,34.135999999999996
37.285,31.968000000000004,36.724000000000004,34.078,34.689,34.104
37.289,31.956,36.628,34.036,34.648,34.071
37.289,31.955,36.538000000000004,33.994,34.606,34.041
37.283,31.971999999999998,36.455999999999996,33.953,34.563,34.014
37.272,32.012,36.381,33.912,34.519,33.989000000000004
37.255,32.080999999999996,36.313,33.872,34.475,33.967
37.233000000000004,32.187,36.253,33.834,34.43,33.945
37.205999999999996,32.336999999999996,36.201,33.796,34.385999999999996,33.925
37.174,32.54,36.155,33.76,34.34,33.906
37.137,32.8,36.116,33.726,34.295,33.888000000000005
37.098,33.121,36.08,33.694,34.251,33.871
37.055,33.501999999999995,36.049,33.664,34.21,33.852
37.009,33.942,36.02,33.635,34.171,33.834
36.961999999999996,34.434,35.993,33.605,34.137,33.815
36.913000000000004,34.97,35.966,33.576,34.106,33.796
36.861999999999995,35.541,35.94,33.547,34.079,33.775999999999996
36.809,36.135,35.912,33.516999999999996,34.056,33.756
36.754,36.74,35.883,33.488,34.036,33.734
36.696999999999996,37.343,35.852,33.459,34.018,33.71
36.638000000000005,37.931,35.82,33.429,34.001,33.684
36.579,38.494,35.788000000000004,33.4,33.983000000000004,33.655
36.519,39.02,35.755,33.37,33.963,33.625
36.46,39.501999999999995,35.72,33.341,33.943000000000005,33.593
36.400999999999996,39.935,35.683,33.314,33.921,33.559
36.342,40.313,35.645,33.29,33.897,33.523
36.284,40.635,35.606,33.268,33.872,33.488
36.226,40.902,35.569,33.247,33.846,33.453
36.169000000000004,41.115,35.533,33.227,33.819,33.419000000000004
36.111999999999995,41.276,35.498000000000005,33.207,33.793,33.385999999999996
36.055,41.39,35.463,33.187,33.766999999999996,33.356
35.997,41.46,35.428000000000004,33.165,33.743,33.327
35.939,41.493,35.394,33.141,33.718,33.301
35.881,41.493,35.358000000000004,33.115,33.693000000000005,33.275999999999996
35.824,41.465,35.321999999999996,33.086,33.669000000000004,33.253
35.768,41.417,35.285,33.056,33.645,33.232
35.711999999999996,41.352,35.247,33.024,33.623000000000005,33.216
35.657,41.273999999999994,35.207,32.991,33.602,33.203
35.604,41.188,35.164,32.957,33.583,33.196999999999996
35.551,41.097,35.118,32.923,33.567,33.199
35.499,41.001999999999995,35.068000000000005,32.888000000000005,33.556,33.213
35.448,40.907,35.013000000000005,32.853,33.55,33.24
35.398,40.813,34.955,32.818000000000005,33.55,33.284
35.348,40.722,34.893,32.783,33.556,33.346
35.297,40.635,34.827,32.748000000000005,33.568000000000005,33.429
35.245,40.552,34.758,32.713,33.585,33.534
35.192,40.476,34.685,32.678000000000004,33.607,33.663000000000004
35.14,40.406,34.609,32.641999999999996,33.632,33.816
35.088,40.343,34.53,32.607,33.662,33.995
35.038000000000004,40.287,34.45,32.571,33.693000000000005,34.201
34.991,40.238,34.368,32.535,33.725,34.431999999999995
34.946,40.196,34.286,32.5,33.755,34.688
34.904,40.16,34.205,32.466,33.782,34.965
34.863,40.128,34.126,32.431,33.804,35.259
34.823,40.099000000000004,34.05,32.397,33.821999999999996,35.565
34.783,40.071999999999996,33.977,32.364000000000004,33.836,35.876999999999995
34.744,40.044000000000004,33.906,32.330999999999996,33.848,36.192
34.704,40.015,33.839,32.299,33.856,36.503
34.667,39.984,33.774,32.269,33.861,36.806
34.631,39.949,33.713,32.24,33.864000000000004,37.098
34.597,39.908,33.656,32.211999999999996,33.865,37.374
34.565,39.861,33.603,32.185,33.865,37.632
34.534,39.806,33.553000000000004,32.159,33.864000000000004,37.869
34.505,39.744,33.507,32.133,33.861,38.086
34.476,39.674,33.463,32.109,33.857,38.28
34.448,39.597,33.423,32.086999999999996,33.851,38.452
34.419000000000004,39.51,33.384,32.067,33.842,38.6
34.391999999999996,39.414,33.347,32.052,33.830999999999996,38.726
34.365,39.309,33.31,32.044000000000004,33.818000000000005,38.829
34.34,39.196999999999996,33.273,32.047,33.802,38.912
34.317,39.08,33.236999999999995,32.065,33.785,38.975
34.297,38.96,33.2,32.101,33.766,39.021
34.28,38.838,33.162,32.159,33.745,39.051
34.264,38.717,33.123000000000005,32.242,33.724000000000004,39.068000000000005
34.251,38.6,33.083,32.355,33.703,39.074
34.239000000000004,38.49,33.043,32.498000000000005,33.683,39.071
34.228,38.389,33.001999999999995,32.675,33.664,39.06
34.22,38.298,32.961999999999996,32.884,33.646,39.043
34.211999999999996,38.218,32.923,33.126,33.629,39.022
34.205999999999996,38.149,32.884,33.397,33.611999999999995,38.997
34.199,38.091,32.848,33.698,33.595,38.971
34.193000000000005,38.042,32.813,34.024,33.578,38.943000000000005
34.186,38.0,32.78,34.373000000000005,33.561,38.916
34.176,37.965,32.749,34.739000000000004,33.542,38.888000000000005
34.164,37.934,32.719,35.118,33.521,38.861999999999995
34.149,37.908,32.692,35.505,33.498000000000005,38.836999999999996
34.133,37.885,32.667,35.896,33.474000000000004,38.813
34.117,37.866,32.645,36.286,33.45,38.79
34.1,37.85,32.625,36.669000000000004,33.426,38.768
34.083,37.838,32.605,37.04,33.403,38.749
34.067,37.828,32.585,37.396,33.381,38.731
34.052,37.821,32.566,37.732,33.363,38.713
34.038000000000004,37.813,32.547,38.042,33.347,38.695
34.025999999999996,37.805,32.53,38.326,33.334,38.676
34.016,37.794000000000004,32.512,38.58,33.324,38.657
34.007,37.78,32.494,38.803000000000004,33.315,38.635999999999996
33.999,37.762,32.475,38.995,33.306999999999995,38.613
33.991,37.74,32.455999999999996,39.157,33.298,38.588
33.982,37.715,32.437,39.289,33.288000000000004,38.561
33.97,37.687,32.418,39.393,33.275,38.531
33.955999999999996,37.655,32.398,39.471,33.26,38.497
33.938,37.622,32.376999999999995,39.525,33.243,38.459
33.917,37.586,32.356,39.556999999999995,33.225,38.417
33.895,37.547,32.335,39.57,33.208,38.371
33.872,37.505,32.314,39.566,33.191,38.321
33.849000000000004,37.46,32.293,39.549,33.177,38.266999999999996
33.826,37.409,32.271,39.522,33.165,38.211999999999996
33.804,37.352,32.249,39.486999999999995,33.157,38.156
33.781,37.288000000000004,32.228,39.445,33.153,38.1
33.757,37.216,32.207,39.398,33.152,38.045
33.731,37.138000000000005,32.187,39.347,33.154,37.991
33.703,37.053000000000004,32.168,39.294000000000004,33.157,37.937
33.672,36.964,32.149,39.24,33.162,37.885999999999996
33.64,36.87,32.131,39.188,33.167,37.836
33.606,36.773,32.111999999999995,39.138000000000005,33.172,37.788000000000004
33.571999999999996,36.673,32.091,39.092,33.175,37.744
33.537,36.571,32.067,39.051,33.177,37.702
33.501999999999995,36.468,32.04,39.015,33.178000000000004,37.664
33.467,36.365,32.01,38.984,33.178000000000004,37.628
33.431,36.264,31.976,38.955,33.177,37.594
33.395,36.164,31.939,38.929,33.176,37.563
33.361,36.067,31.9,38.906,33.175,37.534
33.327,35.972,31.86,38.883,33.173,37.506
33.294000000000004,35.878,31.82,38.86,33.17,37.48
33.262,35.786,31.781999999999996,38.838,33.165,37.455
33.232,35.695,31.745,38.814,33.158,37.43
33.204,35.607,31.711,38.788000000000004,33.15,37.405
33.178000000000004,35.521,31.68,38.758,33.14,37.381
33.153,35.436,31.651999999999997,38.724000000000004,33.13,37.357
33.131,35.352,31.629,38.684,33.121,37.332
33.111,35.27,31.612,38.637,33.113,37.306999999999995
33.095,35.187,31.604,38.584,33.105,37.281
33.084,35.105,31.608,38.525,33.1,37.255
33.08,35.023,31.628,38.46,33.097,37.227
33.086999999999996,34.942,31.668000000000003,38.39,33.096,37.199
33.11,34.861999999999995,31.733,38.318000000000005,33.096,37.169000000000004
33.154,34.785,31.826,38.243,33.097,37.138000000000005
33.224000000000004,34.711,31.951,38.167,33.099000000000004,37.105
33.327,34.64,32.111,38.09,33.103,37.071999999999996
33.469,34.573,32.308,38.014,33.106,37.037
33.654,34.509,32.541,37.938,33.108000000000004,37.0
33.885,34.448,32.81,37.864000000000004,33.107,36.961999999999996
34.164,34.389,33.11,37.793,33.104,36.921
34.488,34.332,33.437,37.726,33.099000000000004,36.879
34.855,34.277,33.786,37.665,33.092,36.834
35.26,34.225,34.15,37.61,33.084,36.785
35.694,34.175,34.524,37.563,33.076,36.733000000000004
36.148,34.128,34.899,37.522,33.067,36.68
36.613,34.082,35.269,37.488,33.059,36.625
37.08,34.037,35.628,37.46,33.053000000000004,36.569
37.541,33.991,35.97,37.438,33.05,36.510999999999996
37.985,33.946,36.289,37.421,33.051,36.452
38.406,33.902,36.580999999999996,37.409,33.053000000000004,36.391999999999996
38.797,33.861,36.842,37.399,33.056999999999995,36.33
39.152,33.823,37.069,37.391999999999996,33.062,36.265
39.469,33.789,37.263000000000005,37.385999999999996,33.068000000000005,36.198
39.745,33.759,37.424,37.379,33.073,36.129
39.979,33.732,37.554,37.37,33.078,36.059
40.171,33.707,37.654,37.359,33.080999999999996,35.986999999999995
40.324,33.684,37.726,37.345,33.082,35.916
40.438,33.662,37.774,37.327,33.08,35.846
40.516999999999996,33.641,37.801,37.304,33.076,35.778
40.564,33.62,37.81,37.277,33.071,35.713
40.582,33.6,37.805,37.244,33.064,35.649
40.575,33.579,37.787,37.205,33.056,35.589
40.545,33.556999999999995,37.76,37.16,33.05,35.532
40.497,33.536,37.725,37.109,33.045,35.477
40.431999999999995,33.515,37.685,37.053000000000004,33.042,35.424
40.354,33.494,37.641999999999996,36.993,33.043,35.372
40.265,33.472,37.598,36.93,33.048,35.32
40.17,33.449,37.555,36.864000000000004,33.058,35.268
40.07,33.426,37.512,36.796,33.075,35.217
39.969,33.404,37.47,36.727,33.099000000000004,35.165
39.866,33.382,37.431,36.657,33.132,35.113
39.764,33.36,37.393,36.585,33.177,35.06
39.664,33.339,37.36,36.510999999999996,33.233000000000004,35.007
39.566,33.318000000000005,37.329,36.436,33.303000000000004,34.952
39.472,33.295,37.302,36.359,33.387,34.898
39.382,33.27,37.277,36.282,33.486,34.843
39.297,33.243,37.256,36.205999999999996,33.6,34.788000000000004
39.216,33.214,37.238,36.131,33.726,34.733000000000004
39.14,33.183,37.222,36.06,33.861,34.678000000000004
