Trial 1:0back,Trial 2:2back,Trial 3:3back,Trial 4:2back,Trial 5:3back,Trial 6:0back
36.478,39.569,33.438,35.464,41.262,37.375
36.491,39.602,33.400999999999996,35.898,41.107,37.116
36.51,39.616,33.367,36.345,40.939,36.861999999999995
36.533,39.611999999999995,33.336,36.796,40.760999999999996,36.613
36.558,39.59,33.306999999999995,37.244,40.573,36.37
36.585,39.552,33.278,37.679,40.376999999999995,36.133
36.61,39.497,33.25,38.096,40.175,35.904
36.634,39.426,33.221,38.49,39.967,35.681999999999995
36.654,39.343,33.191,38.854,39.756,35.468
36.672,39.248000000000005,33.161,39.186,39.543,35.263000000000005
36.686,39.141999999999996,33.132,39.484,39.329,35.068000000000005
36.695,39.025999999999996,33.104,39.747,39.116,34.882
36.7,38.904,33.076,39.974000000000004,38.904,34.708
36.701,38.778,33.049,40.165,38.696,34.546
36.696999999999996,38.65,33.024,40.321,38.493,34.398
36.688,38.52,33.0,40.445,38.296,34.266
36.674,38.391,32.98,40.538000000000004,38.102,34.150999999999996
36.654,38.265,32.963,40.604,37.914,34.055
36.626999999999995,38.141,32.949,40.644,37.729,33.979
36.593,38.022,32.938,40.663000000000004,37.547,33.923
36.553000000000004,37.907,32.93,40.664,37.369,33.887
36.507,37.795,32.924,40.648,37.192,33.872
36.457,37.689,32.919000000000004,40.618,37.016999999999996,33.878
36.403,37.588,32.915,40.575,36.844,33.905
36.347,37.492,32.911,40.52,36.673,33.953
36.288000000000004,37.4,32.905,40.455,36.505,34.023
36.227,37.31,32.898,40.379,36.343,34.113
36.165,37.223,32.887,40.295,36.188,34.224000000000004
36.103,37.135999999999996,32.873000000000005,40.203,36.042,34.352
36.04,37.05,32.856,40.102,35.908,34.497
35.977,36.965,32.836999999999996,39.993,35.786,34.655
35.913000000000004,36.879,32.816,39.878,35.679,34.824
35.85,36.793,32.794000000000004,39.758,35.589,35.003
35.787,36.708,32.77,39.632,35.515,35.188
35.724000000000004,36.624,32.745,39.503,35.46,35.378
35.663000000000004,36.542,32.719,39.37,35.424,35.569
35.605,36.464,32.695,39.233000000000004,35.404,35.758
35.548,36.389,32.672,39.094,35.402,35.941
35.494,36.319,32.653,38.955,35.416,36.115
35.443000000000005,36.254,32.637,38.816,35.446,36.277
35.394,36.196,32.626,38.677,35.49,36.424
35.347,36.145,32.62,38.539,35.548,36.554
35.301,36.103,32.621,38.403,35.618,36.665
35.256,36.068000000000005,32.63,38.268,35.696999999999996,36.754
35.211999999999996,36.041,32.647,38.135,35.783,36.823
35.17,36.023,32.675,38.001999999999995,35.874,36.87
35.129,36.013000000000005,32.714,37.871,35.966,36.897
35.088,36.012,32.768,37.74,36.056999999999995,36.902
35.048,36.019,32.839,37.61,36.145,36.888000000000005
35.009,36.034,32.93,37.48,36.23,36.853
34.971,36.055,33.041,37.349000000000004,36.311,36.799
34.931999999999995,36.080999999999996,33.175,37.218,36.387,36.728
34.895,36.111999999999995,33.334,37.086999999999996,36.458,36.641
34.858000000000004,36.147,33.518,36.958,36.523,36.539
34.823,36.184,33.727,36.83,36.583,36.426
34.788000000000004,36.221,33.959,36.705999999999996,36.637,36.301
34.753,36.258,34.213,36.586999999999996,36.684,36.167
34.718,36.293,34.486,36.473,36.723,36.024
34.683,36.327,34.774,36.368,36.751999999999995,35.876
34.648,36.358000000000004,35.076,36.27,36.77,35.721
34.613,36.388000000000005,35.388000000000005,36.183,36.775999999999996,35.563
34.578,36.413000000000004,35.707,36.107,36.77,35.400999999999996
34.545,36.436,36.029,36.042,36.75,35.236999999999995
34.512,36.454,36.352,35.99,36.718,35.073
34.48,36.468,36.671,35.949,36.674,34.909
34.45,36.477,36.985,35.92,36.618,34.748000000000005
34.421,36.481,37.289,35.903,36.551,34.591
34.394,36.478,37.58,35.897,36.475,34.438
34.368,36.469,37.854,35.900999999999996,36.391,34.29
34.344,36.452,38.109,35.916,36.301,34.147
34.32,36.427,38.341,35.939,36.205,34.009
34.297,36.394,38.551,35.97,36.102,33.876
34.275,36.354,38.736,36.009,35.995,33.747
34.253,36.306999999999995,38.894,36.052,35.883,33.624
34.231,36.255,39.024,36.1,35.766999999999996,33.507
34.209,36.198,39.126,36.150999999999996,35.65,33.394
34.188,36.138000000000005,39.198,36.204,35.531,33.287
34.167,36.075,39.242,36.257,35.41,33.183
34.147,36.01,39.258,36.31,35.29,33.083
34.126,35.941,39.248000000000005,36.361,35.168,32.988
34.105,35.869,39.213,36.41,35.045,32.896
34.086,35.796,39.156,36.454,34.92,32.808
34.076,35.72,39.078,36.492,34.794000000000004,32.725
34.082,35.644,38.982,36.523,34.667,32.646
34.1,35.565,38.871,36.547,34.541,32.571
34.128,35.485,38.749,36.562,34.415,32.501
34.16,35.404,38.619,36.569,34.291,32.436
34.191,35.323,38.482,36.567,34.169000000000004,32.375
34.216,35.242,38.341,36.556999999999995,34.051,32.32
34.231,35.163000000000004,38.2,36.539,33.938,32.269
34.234,35.086,38.059,36.512,33.832,32.225
34.221,35.012,37.921,36.476,33.731,32.187
34.192,34.941,37.785,36.431999999999995,33.637,32.154
34.148,34.873000000000005,37.654,36.381,33.549,32.126999999999995
34.09,34.809,37.525999999999996,36.321999999999996,33.467,32.104
34.022,34.748000000000005,37.403,36.257,33.39,32.085
33.945,34.691,37.284,36.187,33.319,32.069
33.865,34.638000000000005,37.168,36.111999999999995,33.251,32.056
33.783,34.589,37.056,36.034,33.189,32.045
33.703,34.542,36.946,35.953,33.13,32.036
33.626,34.498000000000005,36.838,35.87,33.076,32.028
33.556,34.454,36.733000000000004,35.784,33.025999999999996,32.021
33.494,34.413000000000004,36.631,35.696999999999996,32.979,32.013000000000005
33.441,34.373000000000005,36.53,35.609,32.937,32.003
33.399,34.336,36.431,35.521,32.897,31.991999999999997
33.369,34.302,36.333,35.431,32.861,31.979
33.35,34.273,36.236,35.34,32.828,31.963
33.344,34.249,36.14,35.248000000000005,32.799,31.945
33.352,34.229,36.044000000000004,35.156,32.773,31.924
33.375,34.21,35.949,35.064,32.748000000000005,31.901
33.414,34.191,35.856,34.973,32.724000000000004,31.875999999999998
33.47,34.172,35.764,34.882,32.7,31.849
33.545,34.153,35.675,34.791,32.676,31.820999999999998
33.637,34.132,35.588,34.7,32.65,31.791999999999998
33.749,34.111,35.504,34.61,32.622,31.763
33.881,34.089,35.425,34.521,32.592,31.734
34.033,34.065,35.35,34.434,32.559,31.704
34.207,34.042,35.282,34.35,32.525,31.675
34.402,34.016999999999996,35.221,34.268,32.49,31.648000000000003
34.618,33.992,35.169000000000004,34.189,32.454,31.623
34.853,33.966,35.124,34.114000000000004,32.417,31.601
35.105,33.938,35.086999999999996,34.043,32.381,31.583000000000002
35.37,33.908,35.06,33.976,32.346,31.57
35.644,33.878,35.041,33.913000000000004,32.312,31.564
35.925,33.847,35.033,33.855,32.281,31.565
36.208,33.817,35.033,33.8,32.251999999999995,31.576999999999998
36.491,33.787,35.043,33.748000000000005,32.226,31.601
36.77,33.758,35.061,33.699,32.203,31.642
37.042,33.73,35.088,33.653,32.181999999999995,31.704
37.305,33.703,35.121,33.608000000000004,32.165,31.79
37.556,33.679,35.16,33.565,32.152,31.906999999999996
37.793,33.656,35.204,33.522,32.145,32.06
38.014,33.633,35.246,33.479,32.146,32.257
38.217,33.611999999999995,35.278,33.436,32.154,32.504
38.4,33.591,35.298,33.393,32.174,32.805
38.563,33.569,35.306999999999995,33.351,32.208,33.163000000000004
38.705,33.545,35.306,33.309,32.263000000000005,33.579
38.825,33.521,35.299,33.269,32.345,34.05
38.925,33.497,35.289,33.23,32.46,34.571
39.003,33.475,35.279,33.192,32.616,35.135
39.061,33.457,35.271,33.157,32.816,35.733000000000004
39.098,33.445,35.265,33.124,33.066,36.355
39.115,33.442,35.263000000000005,33.093,33.366,36.986999999999995
39.114000000000004,33.449,35.265,33.064,33.715,37.62
39.095,33.47,35.271,33.037,34.109,38.241
39.059,33.508,35.279,33.014,34.541,38.84
39.009,33.563,35.287,32.993,35.007,39.409
38.946,33.639,35.295,32.974000000000004,35.497,39.939
38.873000000000005,33.738,35.299,32.957,36.004,40.425
38.791,33.861999999999995,35.298,32.939,36.521,40.861
38.702,34.012,35.291,32.921,37.041,41.244
38.609,34.189,35.278,32.904,37.555,41.571999999999996
38.514,34.391,35.257,32.885999999999996,38.058,41.843999999999994
38.418,34.618,35.229,32.868,38.545,42.063
38.323,34.866,35.193000000000005,32.849000000000004,39.010999999999996,42.229
38.23,35.133,35.150999999999996,32.829,39.451,42.347
38.138000000000005,35.414,35.103,32.806999999999995,39.864000000000004,42.42100000000001
38.05,35.705999999999996,35.049,32.784,40.246,42.45399999999999
37.966,36.003,34.99,32.76,40.596,42.451
37.885,36.302,34.926,32.736,40.91,42.416000000000004
37.809,36.599000000000004,34.859,32.711999999999996,41.18899999999999,42.354
37.738,36.891999999999996,34.787,32.689,41.431000000000004,42.268
37.67,37.177,34.714,32.67,41.636,42.16
37.604,37.453,34.639,32.653,41.803000000000004,42.034
37.54,37.718,34.563,32.641999999999996,41.934,41.891000000000005
37.475,37.97,34.488,32.638000000000005,42.03,41.732
37.409,38.205999999999996,34.413000000000004,32.644,42.09,41.556000000000004
37.341,38.425,34.338,32.662,42.118,41.365
37.271,38.626999999999995,34.263000000000005,32.696,42.115,41.158
37.199,38.809,34.191,32.75,42.083,40.937
37.125,38.971,34.12,32.827,42.023999999999994,40.704
37.05,39.113,34.053000000000004,32.931999999999995,41.93899999999999,40.459
36.975,39.234,33.99,33.069,41.832,40.205
36.900999999999996,39.334,33.931999999999995,33.242,41.705,39.945
36.828,39.412,33.879,33.452,41.56,39.679
36.756,39.468,33.830999999999996,33.702,41.398999999999994,39.409
36.686,39.503,33.788000000000004,33.991,41.226000000000006,39.135999999999996
36.618,39.518,33.749,34.317,41.043,38.861999999999995
36.554,39.514,33.713,34.677,40.852,38.586999999999996
36.495,39.491,33.68,35.066,40.654,38.314
36.441,39.451,33.65,35.479,40.451,38.042
36.393,39.395,33.621,35.908,40.246,37.774
36.35,39.324,33.594,36.346,40.041,37.51
36.314,39.242,33.569,36.786,39.835,37.25
36.285,39.148,33.544000000000004,37.22,39.631,36.995
36.262,39.044000000000004,33.522,37.641999999999996,39.429,36.745
36.244,38.931999999999995,33.501,38.045,39.231,36.499
36.231,38.816,33.48,38.425,39.036,36.258
36.223,38.695,33.461,38.779,38.846,36.02
36.219,38.573,33.443000000000005,39.103,38.66,35.787
36.221,38.449,33.425,39.396,38.479,35.559
36.227,38.325,33.409,39.656,38.303000000000004,35.339
36.236999999999995,38.203,33.393,39.884,38.132,35.129
36.249,38.083,33.376999999999995,40.08,37.964,34.93
36.264,37.966,33.361999999999995,40.246,37.8,34.744
36.279,37.852,33.348,40.382,37.639,34.575
36.295,37.742,33.333,40.49,37.48,34.423
36.311,37.635,33.318000000000005,40.57,37.323,34.291
36.327,37.533,33.304,40.624,37.169000000000004,34.178000000000004
36.341,37.434,33.29,40.655,37.018,34.085
36.353,37.338,33.277,40.665,36.87,34.010999999999996
36.363,37.244,33.264,40.656,36.725,33.958
36.369,37.15,33.25,40.626999999999995,36.586,33.923
36.372,37.056999999999995,33.235,40.582,36.452,33.909
36.369,36.965,33.219,40.521,36.326,33.915
36.36,36.872,33.203,40.446,36.207,33.94
36.346,36.779,33.185,40.358000000000004,36.097,33.985
36.328,36.687,33.168,40.26,35.996,34.049
36.305,36.598,33.150999999999996,40.152,35.907,34.131
36.279,36.510999999999996,33.134,40.036,35.829,34.23
36.248000000000005,36.429,33.117,39.912,35.766,34.344
36.213,36.352,33.1,39.783,35.717,34.472
36.173,36.281,33.080999999999996,39.650999999999996,35.681999999999995,34.61
36.129,36.216,33.061,39.515,35.662,34.756
36.082,36.157,33.04,39.376999999999995,35.657,34.908
36.03,36.106,33.018,39.24,35.667,35.062
35.974000000000004,36.063,32.996,39.103,35.691,35.216
35.914,36.028,32.973,38.968,35.728,35.368
35.853,36.001999999999995,32.95,38.833,35.775999999999996,35.516
35.79,35.985,32.926,38.699,35.834,35.656
35.727,35.978,32.900999999999996,38.566,35.9,35.788000000000004
35.662,35.98,32.878,38.435,35.974000000000004,35.908
35.596,35.992,32.858000000000004,38.306999999999995,36.053000000000004,36.015
35.529,36.010999999999996,32.842,38.181,36.135999999999996,36.107
35.461,36.035,32.83,38.056999999999995,36.221,36.184
35.391,36.064,32.824,37.935,36.305,36.243
35.321,36.095,32.826,37.814,36.385999999999996,36.284
35.251,36.129,32.835,37.695,36.461999999999996,36.306999999999995
35.181999999999995,36.165,32.853,37.577,36.531,36.312
35.115,36.202,32.884,37.461,36.592,36.299
35.05,36.239000000000004,32.931,37.346,36.644,36.268
34.988,36.275999999999996,32.997,37.232,36.689,36.221
34.928000000000004,36.311,33.085,37.117,36.727,36.158
34.87,36.343,33.196,37.005,36.757,36.082
34.815,36.371,33.332,36.894,36.778,35.993
34.76,36.396,33.493,36.784,36.788000000000004,35.894
34.705999999999996,36.415,33.68,36.678000000000004,36.787,35.786
34.655,36.43,33.891999999999996,36.575,36.775,35.67
34.605,36.44,34.126999999999995,36.476,36.75,35.55
34.558,36.445,34.385,36.383,36.711,35.424
34.513000000000005,36.445,34.662,36.295,36.66,35.295
34.472,36.44,34.955999999999996,36.215,36.595,35.163000000000004
34.434,36.429,35.262,36.141999999999996,36.52,35.028
34.399,36.412,35.578,36.077,36.434,34.89
34.366,36.389,35.900999999999996,36.021,36.341,34.749
34.336,36.359,36.226,35.975,36.241,34.605
34.308,36.323,36.552,35.938,36.137,34.458
34.283,36.28,36.874,35.91,36.028,34.309
34.259,36.232,37.19,35.891999999999996,35.917,34.16
34.238,36.178000000000004,37.495,35.883,35.803000000000004,34.013000000000005
34.218,36.118,37.786,35.885,35.689,33.869
34.198,36.054,38.06,35.898,35.574,33.73
34.179,35.985,38.314,35.92,35.459,33.595
34.161,35.914,38.545,35.95,35.343,33.465
34.143,35.841,38.751,35.985,35.227,33.34
34.125,35.765,38.93,36.024,35.109,33.221
34.107,35.688,39.079,36.066,34.991,33.109
34.089,35.609,39.198,36.109,34.873000000000005,33.003
34.071,35.53,39.288000000000004,36.153,34.756,32.904
34.053000000000004,35.45,39.348,36.195,34.64,32.811
34.034,35.372,39.381,36.234,34.525999999999996,32.723
34.013000000000005,35.296,39.387,36.269,34.415,32.641
33.992,35.223,39.368,36.298,34.306,32.563
33.97,35.154,39.326,36.32,34.2,32.489000000000004
33.946999999999996,35.088,39.263000000000005,36.335,34.099000000000004,32.419000000000004
33.925,35.025999999999996,39.181,36.342,34.001,32.352
33.902,34.968,39.083,36.341,33.908,32.289
33.881,34.914,38.97,36.332,33.818000000000005,32.23
33.86,34.863,38.846,36.316,33.733000000000004,32.174
33.838,34.816,38.714,36.292,33.652,32.121
33.814,34.771,38.575,36.260999999999996,33.575,32.07
33.79,34.728,38.433,36.222,33.503,32.022
33.765,34.687,38.291,36.177,33.434,31.978
33.74,34.645,38.149,36.125,33.369,31.939
33.717,34.603,38.01,36.068000000000005,33.306999999999995,31.906
33.695,34.56,37.872,36.006,33.249,31.875999999999998
33.676,34.516,37.738,35.938,33.194,31.85
33.657,34.472,37.608000000000004,35.863,33.141999999999996,31.826
33.641,34.428000000000004,37.481,35.782,33.091,31.802
33.625,34.384,37.357,35.694,33.044000000000004,31.778000000000002
33.608000000000004,34.341,37.238,35.601,32.998000000000005,31.752
33.588,34.3,37.124,35.503,32.955999999999996,31.725
33.565,34.259,37.014,35.403,32.917,31.697
33.539,34.221,36.908,35.3,32.88,31.668000000000003
33.513000000000005,34.184,36.805,35.195,32.845,31.64
33.486999999999995,34.149,36.704,35.086999999999996,32.812,31.611
33.461999999999996,34.116,36.605,34.977,32.783,31.581999999999997
33.437,34.084,36.506,34.867,32.756,31.552
33.413000000000004,34.053000000000004,36.409,34.758,32.733000000000004,31.522
33.39,34.024,36.311,34.652,32.711999999999996,31.493000000000002
33.368,33.996,36.215,34.548,32.694,31.465
33.346,33.97,36.123000000000005,34.448,32.685,31.44
33.327,33.946,36.037,34.351,32.691,31.416999999999998
33.309,33.925,35.96,34.258,32.709,31.396
33.293,33.906,35.889,34.167,32.735,31.378
33.281,33.888000000000005,35.824,34.08,32.765,31.362
33.275999999999996,33.872,35.765,33.996,32.792,31.348000000000003
33.279,33.856,35.708,33.915,32.812,31.335
33.294000000000004,33.841,35.654,33.836999999999996,32.821,31.325
33.321999999999996,33.826,35.601,33.762,32.818000000000005,31.314
33.366,33.813,35.55,33.688,32.8,31.304000000000002
33.429,33.801,35.5,33.617,32.769,31.293000000000003
33.513000000000005,33.789,35.453,33.548,32.725,31.281
33.62,33.778,35.409,33.48,32.67,31.268
33.751999999999995,33.766,35.368,33.414,32.609,31.255
33.91,33.753,35.332,33.351,32.545,31.241
34.093,33.74,35.299,33.291,32.482,31.226999999999997
34.301,33.725,35.272,33.235,32.425,31.215
34.531,33.71,35.25,33.181999999999995,32.378,31.205
34.781,33.693000000000005,35.235,33.131,32.347,31.201
35.047,33.673,35.229,33.083,32.336999999999996,31.206
35.325,33.652,35.23,33.037,32.356,31.224
35.611999999999995,33.628,35.239000000000004,32.993,32.409,31.256999999999998
35.903,33.603,35.255,32.951,32.501999999999995,31.31
36.194,33.578,35.275999999999996,32.912,32.641,31.385
36.483000000000004,33.552,35.304,32.875,32.829,31.489
36.765,33.529,35.336,32.84,33.068000000000005,31.625999999999998
37.038000000000004,33.507,35.372,32.806999999999995,33.359,31.805
37.298,33.488,35.409,32.775,33.699,32.031
37.541,33.471,35.446999999999996,32.745,34.085,32.309
37.766,33.457,35.482,32.717,34.510999999999996,32.646
37.972,33.446999999999996,35.514,32.69,34.971,33.043
38.156,33.441,35.543,32.665,35.458,33.501
38.318000000000005,33.442,35.567,32.641999999999996,35.964,34.018
38.457,33.452,35.586999999999996,32.622,36.482,34.586
38.573,33.472,35.602,32.602,37.006,35.2
38.667,33.506,35.61,32.585,37.529,35.849000000000004
38.739000000000004,33.556999999999995,35.611,32.567,38.045,36.52
38.791,33.626999999999995,35.603,32.55,38.548,37.203
38.824,33.72,35.586,32.534,39.031,37.883
38.841,33.838,35.56,32.519,39.49,38.548
38.841,33.983000000000004,35.525999999999996,32.504,39.919000000000004,39.186
38.828,34.154,35.484,32.491,40.316,39.788000000000004
38.802,34.352,35.436,32.479,40.678000000000004,40.345
38.765,34.574,35.383,32.468,41.001999999999995,40.85
38.718,34.818000000000005,35.324,32.457,41.286,41.301
38.661,35.080999999999996,35.260999999999996,32.446,41.53,41.693999999999996
38.598,35.359,35.193000000000005,32.434,41.731,42.03
38.529,35.648,35.122,32.421,41.89,42.309
38.455999999999996,35.944,35.049,32.408,42.007,42.533
38.378,36.243,34.976,32.393,42.083999999999996,42.70399999999999
38.297,36.542,34.900999999999996,32.379,42.123000000000005,42.827
38.213,36.836,34.827,32.364000000000004,42.126999999999995,42.903999999999996
38.126999999999995,37.123000000000005,34.754,32.347,42.099,42.93899999999999
38.041,37.4,34.681,32.328,42.04,42.93600000000001
37.954,37.664,34.61,32.306999999999995,41.95399999999999,42.898999999999994
37.869,37.914,34.541,32.284,41.843,42.832
37.784,38.148,34.475,32.259,41.71,42.736000000000004
37.701,38.365,34.412,32.233000000000004,41.558,42.61600000000001
37.62,38.563,34.352,32.207,41.388000000000005,42.472
37.541,38.742,34.295,32.181,41.205,42.306999999999995
37.461999999999996,38.9,34.241,32.156,41.011,42.123000000000005
37.384,39.035,34.188,32.132,40.806999999999995,41.922
37.306999999999995,39.147,34.135999999999996,32.111,40.598,41.708
37.231,39.235,34.086999999999996,32.093,40.385,41.482
37.157,39.299,34.039,32.079,40.17,41.246
37.084,39.34,33.993,32.068000000000005,39.955,41.001999999999995
37.014,39.357,33.948,32.061,39.742,40.753
36.945,39.352,33.903,32.058,39.532,40.5
36.876,39.326,33.858000000000004,32.06,39.326,40.243
36.808,39.283,33.811,32.068000000000005,39.125,39.983000000000004
36.739000000000004,39.224000000000004,33.764,32.083,38.931,39.722
36.669000000000004,39.15,33.716,32.107,38.743,39.458
36.6,39.064,33.67,32.144,38.561,39.193000000000005
36.531,38.968,33.625,32.196999999999996,38.385,38.928000000000004
36.464,38.865,33.582,32.27,38.216,38.663000000000004
36.400999999999996,38.756,33.54,32.368,38.052,38.398
36.341,38.643,33.501,32.494,37.893,38.135999999999996
36.287,38.527,33.465,32.653,37.736999999999995,37.876999999999995
36.236,38.408,33.431,32.849000000000004,37.584,37.62
36.189,38.287,33.400999999999996,33.085,37.434,37.364000000000004
36.145,38.166,33.374,33.361999999999995,37.288000000000004,37.111999999999995
36.105,38.046,33.349000000000004,33.68,37.145,36.861
36.071,37.927,33.327,34.036,37.005,36.615
36.041,37.809,33.306999999999995,34.428000000000004,36.869,36.373000000000005
36.016999999999996,37.692,33.288000000000004,34.848,36.736999999999995,36.138000000000005
36.0,37.579,33.27,35.291,36.61,35.91
35.989000000000004,37.469,33.251999999999995,35.749,36.488,35.691
35.985,37.361,33.236999999999995,36.214,36.371,35.482
35.989000000000004,37.257,33.223,36.677,36.262,35.284
35.999,37.154,33.21,37.131,36.16,35.097
36.014,37.052,33.198,37.567,36.068000000000005,34.924
36.033,36.953,33.186,37.979,35.986999999999995,34.765
36.053000000000004,36.854,33.174,38.361,35.918,34.624
36.076,36.756,33.161,38.708,35.861999999999995,34.5
36.099000000000004,36.658,33.147,39.019,35.819,34.394
36.123000000000005,36.561,33.132,39.291,35.788000000000004,34.306999999999995
36.146,36.465,33.117,39.522,35.769,34.238
36.167,36.371,33.1,39.711999999999996,35.760999999999996,34.188
36.184,36.281,33.080999999999996,39.863,35.765,34.156
36.196,36.195,33.06,39.976,35.78,34.144
36.202,36.114000000000004,33.038000000000004,40.053000000000004,35.805,34.152
36.203,36.04,33.016,40.1,35.841,34.18
36.196999999999996,35.975,32.995,40.119,35.888000000000005,34.228
36.186,35.919000000000004,32.975,40.113,35.943000000000005,34.298
36.169000000000004,35.872,32.955999999999996,40.085,36.007,34.387
36.146,35.834,32.938,40.039,36.078,34.495
36.118,35.806,32.922,39.978,36.154,34.621
36.083,35.787,32.906,39.905,36.234,34.763000000000005
36.043,35.775999999999996,32.891,39.821999999999996,36.314,34.919000000000004
35.998000000000005,35.774,32.876,39.729,36.394,35.085
35.946999999999996,35.778,32.861999999999995,39.629,36.472,35.26
35.893,35.789,32.847,39.524,36.544000000000004,35.439
35.835,35.806,32.830999999999996,39.413000000000004,36.609,35.62
35.774,35.827,32.815,39.297,36.665,35.8
35.711,35.853,32.799,39.179,36.711999999999996,35.976
35.646,35.883,32.783,39.06,36.748000000000005,36.146
35.580999999999996,35.916,32.768,38.939,36.772,36.306
35.516,35.952,32.754,38.817,36.783,36.454
35.45,35.99,32.743,38.694,36.783,36.586999999999996
35.385999999999996,36.029,32.735,38.569,36.77,36.704
35.323,36.069,32.731,38.444,36.745,36.801
35.262,36.109,32.733000000000004,38.319,36.709,36.88
35.201,36.148,32.741,38.193000000000005,36.662,36.939
35.14,36.184,32.759,38.068000000000005,36.604,36.977
35.078,36.217,32.786,37.944,36.534,36.995
35.016,36.246,32.826,37.82,36.455,36.993
34.954,36.269,32.882,37.695,36.368,36.973
34.894,36.287,32.957,37.57,36.274,36.934
34.836,36.298,33.055,37.446,36.176,36.876999999999995
34.779,36.301,33.178000000000004,37.323,36.074,36.804
34.725,36.296,33.327,37.202,35.97,36.716
34.672,36.285,33.503,37.082,35.864000000000004,36.614000000000004
34.621,36.266999999999996,33.704,36.964,35.757,36.499
34.571,36.243,33.929,36.846,35.648,36.372
34.521,36.213,34.175,36.726,35.538000000000004,36.235
34.473,36.178000000000004,34.439,36.604,35.426,36.09
34.426,36.137,34.719,36.482,35.312,35.938
34.381,36.09,35.010999999999996,36.36,35.196999999999996,35.781
34.339,36.039,35.312,36.241,35.08,35.621
34.3,35.984,35.62,36.125,34.964,35.458
34.265,35.924,35.93,36.013000000000005,34.848,35.295
34.234,35.861999999999995,36.241,35.906,34.735,35.133
34.205,35.796,36.548,35.805,34.624,34.972
34.178000000000004,35.73,36.851,35.713,34.516,34.812
34.153,35.662,37.146,35.63,34.412,34.655
34.129,35.592,37.431,35.556999999999995,34.312,34.5
34.106,35.519,37.704,35.495,34.217,34.348
34.083,35.442,37.961,35.444,34.126,34.198
34.059,35.363,38.2,35.403,34.039,34.051
34.035,35.283,38.417,35.372,33.954,33.906
34.010999999999996,35.201,38.611,35.35,33.873000000000005,33.764
33.986999999999995,35.121,38.779,35.339,33.794000000000004,33.626
33.963,35.043,38.919000000000004,35.336,33.718,33.492
33.939,34.967,39.031,35.343,33.645,33.361999999999995
33.913000000000004,34.895,39.114000000000004,35.36,33.574,33.239000000000004
33.885,34.826,39.169000000000004,35.385,33.507,33.122
33.856,34.760999999999996,39.196,35.418,33.442,33.012
33.825,34.699,39.195,35.457,33.381,32.909
33.794000000000004,34.641,39.17,35.503,33.323,32.813
33.765,34.585,39.12,35.555,33.266999999999996,32.724000000000004
33.736999999999995,34.533,39.05,35.611,33.214,32.641
33.71,34.482,38.96,35.67,33.164,32.565
33.685,34.434,38.855,35.732,33.115,32.493
33.662,34.388000000000005,38.736,35.793,33.067,32.426
33.64,34.344,38.608000000000004,35.853,33.022,32.363
33.62,34.303000000000004,38.473,35.908,32.979,32.306
33.601,34.263000000000005,38.333,35.959,32.939,32.253
33.583,34.227,38.192,36.004,32.9,32.203
33.567,34.193000000000005,38.05,36.041,32.865,32.157
33.554,34.162,37.91,36.07,32.832,32.115
33.543,34.134,37.772,36.089,32.803000000000004,32.077
33.536,34.106,37.635999999999996,36.097,32.775,32.042
33.531,34.079,37.503,36.095,32.749,32.010999999999996
33.525,34.052,37.374,36.083,32.724000000000004,31.982
33.518,34.025,37.248000000000005,36.062,32.7,31.955
33.508,33.996,37.126999999999995,36.031,32.676,31.930999999999997
33.494,33.967,37.009,35.991,32.652,31.908
33.477,33.937,36.896,35.943000000000005,32.628,31.886999999999997
33.455999999999996,33.907,36.787,35.887,32.604,31.868000000000002
33.431,33.879,36.68,35.824,32.58,31.851
33.409,33.851,36.576,35.755,32.556999999999995,31.836
33.394,33.825,36.473,35.681,32.535,31.820999999999998
33.388000000000005,33.8,36.372,35.604,32.512,31.805999999999997
33.387,33.778,36.272,35.524,32.49,31.791
33.391,33.758,36.174,35.44,32.466,31.776
33.396,33.741,36.076,35.354,32.44,31.76
33.399,33.726,35.979,35.265,32.413000000000004,31.744
33.397,33.713,35.883,35.173,32.385,31.728
33.39,33.702,35.789,35.080999999999996,32.356,31.711
33.376,33.694,35.696999999999996,34.986999999999995,32.326,31.693
33.357,33.686,35.607,34.891999999999996,32.298,31.674
33.334,33.679,35.521,34.798,32.275,31.654
33.309,33.67,35.44,34.703,32.26,31.631999999999998
33.287,33.661,35.365,34.608000000000004,32.255,31.61
33.272,33.650999999999996,35.295,34.513000000000005,32.266999999999996,31.587
33.266999999999996,33.638000000000005,35.232,34.42,32.3,31.566999999999997
33.277,33.623000000000005,35.176,34.328,32.36,31.55
33.306,33.605,35.129,34.239000000000004,32.454,31.538
33.357,33.585,35.091,34.152,32.586,31.533
33.435,33.562,35.062,34.068000000000005,32.76,31.538
33.541,33.537,35.041,33.986,32.98,31.555999999999997
33.677,33.509,35.027,33.906,33.247,31.59
33.842,33.479,35.021,33.828,33.562,31.647
34.036,33.449,35.022,33.751,33.919000000000004,31.733
34.255,33.419000000000004,35.031,33.676,34.317,31.853
34.498000000000005,33.39,35.046,33.604,34.748000000000005,32.016999999999996
34.759,33.363,35.068000000000005,33.535,35.207,32.229
35.036,33.339,35.095,33.468,35.686,32.496
35.324,33.317,35.126999999999995,33.403,36.181,32.819
35.618,33.299,35.164,33.341,36.684,33.202
35.915,33.285,35.203,33.283,37.188,33.643
36.207,33.274,35.244,33.227,37.689,34.138000000000005
36.49,33.269,35.286,33.176,38.181,34.684
36.759,33.268,35.328,33.126999999999995,38.658,35.271
37.012,33.275,35.37,33.080999999999996,39.117,35.89
37.247,33.291,35.409,33.038000000000004,39.553000000000004,36.53
37.466,33.317,35.445,32.996,39.961,37.179
37.666,33.358000000000004,35.478,32.957,40.336999999999996,37.825
37.848,33.417,35.504,32.92,40.68,38.458
38.01,33.495,35.525999999999996,32.885,40.983000000000004,39.066
38.152,33.596,35.541,32.854,41.243,39.641
38.274,33.721,35.549,32.825,41.458,40.176
38.376999999999995,33.869,35.55,32.802,41.626000000000005,40.665
38.46,34.042,35.545,32.783,41.748000000000005,41.105
38.525999999999996,34.239000000000004,35.533,32.77,41.826,41.492
38.573,34.458,35.516,32.762,41.861000000000004,41.827
38.605,34.696,35.493,32.756,41.858000000000004,42.111000000000004
38.621,34.951,35.465,32.751999999999995,41.818999999999996,42.343
38.623000000000005,35.22,35.433,32.748000000000005,41.747,42.528999999999996
38.61,35.499,35.396,32.743,41.646,42.67
38.584,35.785,35.354,32.736999999999995,41.52,42.769
38.546,36.071999999999996,35.308,32.73,41.372,42.83
38.496,36.358000000000004,35.259,32.722,41.205,42.855
38.438,36.638000000000005,35.205999999999996,32.713,41.023999999999994,42.847
38.371,36.911,35.150999999999996,32.703,40.832,42.809
38.297,37.174,35.093,32.691,40.631,42.744
38.217,37.425,35.032,32.68,40.422,42.653
38.134,37.662,34.969,32.668,40.21,42.538999999999994
38.048,37.885,34.904,32.657,39.993,42.403999999999996
37.96,38.092,34.839,32.646,39.775999999999996,42.25
37.871,38.281,34.774,32.635,39.56,42.077
37.784,38.453,34.708,32.624,39.347,41.888999999999996
37.702,38.606,34.641,32.611,39.135999999999996,41.68600000000001
37.625,38.74,34.574,32.597,38.93,41.468999999999994
37.552,38.853,34.506,32.580999999999996,38.728,41.24100000000001
37.481,38.944,34.437,32.566,38.531,41.003
37.411,39.013000000000005,34.368,32.55,38.34,40.756
37.341,39.06,34.298,32.536,38.155,40.501999999999995
37.27,39.084,34.229,32.523,37.976,40.243
37.198,39.086,34.16,32.510999999999996,37.804,39.981
37.124,39.067,34.092,32.5,37.637,39.717
37.046,39.028,34.025999999999996,32.49,37.477,39.453
36.966,38.971,33.963,32.48,37.321,39.189
36.884,38.9,33.904,32.47,37.169000000000004,38.927
36.8,38.815,33.848,32.46,37.019,38.667
36.716,38.718,33.798,32.449,36.873000000000005,38.409
36.632,38.613,33.751999999999995,32.438,36.728,38.153
36.547,38.501,33.711,32.426,36.586,37.899
36.461999999999996,38.385,33.675,32.413000000000004,36.446999999999996,37.646
36.378,38.266,33.641999999999996,32.399,36.312,37.394
36.295,38.145,33.614000000000004,32.385,36.183,37.145
36.217,38.023,33.589,32.37,36.06,36.897
36.141999999999996,37.902,33.566,32.356,35.946,36.653
36.073,37.781,33.545,32.346,35.84,36.413000000000004
36.010999999999996,37.661,33.525999999999996,32.341,35.745,36.176
35.955999999999996,37.544000000000004,33.508,32.34,35.661,35.944
35.909,37.428000000000004,33.492,32.345,35.589,35.72
35.871,37.315,33.478,32.359,35.53,35.506
35.839,37.204,33.464,32.382,35.485,35.303000000000004
35.815,37.096,33.451,32.418,35.455,35.113
35.797,36.99,33.438,32.469,35.439,34.939
35.785,36.885,33.425,32.541,35.439,34.782
35.779,36.782,33.412,32.635,35.452,34.644
35.779,36.681,33.4,32.756,35.478,34.527
35.783,36.58,33.387,32.907,35.514,34.43
35.792,36.481,33.375,33.091,35.56,34.356
35.804,36.381,33.363,33.311,35.616,34.304
35.818000000000005,36.282,33.351,33.567,35.679,34.273
35.834,36.186,33.339,33.861,35.748000000000005,34.264
35.851,36.093,33.328,34.19,35.823,34.275999999999996
35.869,36.005,33.318000000000005,34.55,35.902,34.309
35.887,35.923,33.309,34.938,35.983000000000004,34.361
35.905,35.848,33.3,35.346,36.065,34.431
35.923,35.78,33.292,35.766999999999996,36.145,34.516999999999996
35.941,35.72,33.285,36.193000000000005,36.222,34.618
35.957,35.668,33.278,36.617,36.294000000000004,34.733000000000004
35.972,35.624,33.272,37.031,36.36,34.86
35.983000000000004,35.59,33.269,37.427,36.417,34.996
35.99,35.565,33.268,37.8,36.465,35.139
35.993,35.549,33.266999999999996,38.144,36.501999999999995,35.286
35.991,35.542,33.266,38.454,36.528,35.435
35.984,35.544000000000004,33.264,38.729,36.541,35.583
35.971,35.554,33.259,38.965,36.542,35.728
35.953,35.571,33.25,39.162,36.531,35.867
35.931,35.594,33.238,39.32,36.508,35.999
35.903,35.622,33.221,39.44,36.475,36.121
35.87,35.656,33.201,39.525,36.431,36.232
35.832,35.694,33.177,39.579,36.378,36.329
35.789,35.735,33.150999999999996,39.603,36.315,36.41
35.74,35.78,33.123000000000005,39.602,36.243,36.475
35.686,35.827,33.092,39.58,36.164,36.521
35.626,35.875,33.061,39.538000000000004,36.078,36.549
35.562,35.921,33.03,39.479,35.986999999999995,36.559
35.494,35.966,33.001999999999995,39.407,35.89,36.552
35.422,36.008,32.978,39.321999999999996,35.79,36.53
35.348,36.046,32.961,39.229,35.686,36.493
35.272,36.079,32.951,39.126,35.580999999999996,36.443000000000005
35.196,36.106,32.952,39.016,35.474000000000004,36.38
35.119,36.126999999999995,32.965,38.899,35.368,36.306
35.042,36.143,32.993,38.777,35.262,36.22
34.966,36.152,33.039,38.65,35.157,36.124
34.891999999999996,36.155,33.105,38.52,35.053000000000004,36.018
34.819,36.152,33.193000000000005,38.388000000000005,34.949,35.904
34.748000000000005,36.144,33.304,38.255,34.847,35.785
34.679,36.129,33.44,38.121,34.746,35.661
34.611,36.109,33.602,37.988,34.646,35.534
34.546,36.083,33.787,37.854,34.548,35.404
34.483000000000004,36.052,33.997,37.719,34.452,35.27
34.423,36.016,34.229,37.583,34.359,35.131
34.366,35.974000000000004,34.48,37.445,34.268,34.986999999999995
34.312,35.926,34.749,37.306,34.18,34.839
34.260999999999996,35.874,35.032,37.166,34.096,34.688
34.213,35.817,35.325,37.025999999999996,34.013000000000005,34.535
34.168,35.758,35.625,36.885999999999996,33.933,34.381
34.126,35.695,35.929,36.745,33.854,34.228
34.086,35.629,36.234,36.604,33.777,34.076
34.048,35.562,36.537,36.464,33.701,33.925
34.012,35.496,36.836,36.325,33.628,33.778
33.977,35.431,37.128,36.188,33.556,33.634
33.943000000000005,35.368,37.41,36.054,33.485,33.494
33.902,35.304,37.678000000000004,35.923,33.416,33.359
33.848,35.24,37.93,35.796,33.349000000000004,33.229
33.78,35.173,38.164,35.672,33.283,33.106
33.701,35.106,38.378,35.553000000000004,33.22,32.99
33.615,35.036,38.569,35.439,33.16,32.881
33.527,34.965,38.735,35.330999999999996,33.104,32.777
33.444,34.894,38.875,35.229,33.053000000000004,32.679
33.37,34.823,38.988,35.135,33.006,32.586
33.308,34.751999999999995,39.074,35.051,32.965,32.498000000000005
33.262,34.683,39.132,34.975,32.928000000000004,32.417
33.23,34.614000000000004,39.163000000000004,34.908,32.895,32.341
33.213,34.547,39.167,34.851,32.866,32.271
33.209,34.483000000000004,39.147,34.804,32.841,32.205999999999996
33.217,34.421,39.103,34.768,32.819,32.147
33.234,34.363,39.038000000000004,34.743,32.801,32.094
33.256,34.306999999999995,38.955,34.728,32.785,32.045
33.281,34.255,38.856,34.725,32.772,31.999000000000002
33.306999999999995,34.205,38.745,34.731,32.76,31.956999999999997
33.332,34.157,38.625,34.745,32.748000000000005,31.919
33.357,34.111999999999995,38.495,34.768,32.736,31.881999999999998
33.38,34.068000000000005,38.36,34.8,32.724000000000004,31.846999999999998
33.4,34.027,38.221,34.842,32.709,31.813000000000002
33.416,33.988,38.08,34.891,32.691,31.779
33.426,33.951,37.939,34.949,32.67,31.746
33.431,33.916,37.8,35.013000000000005,32.645,31.712
33.429,33.884,37.663000000000004,35.082,32.616,31.678
33.422,33.855,37.53,35.154,32.583,31.644000000000002
33.408,33.830999999999996,37.400999999999996,35.229,32.549,31.612
33.39,33.816,37.275999999999996,35.304,32.512,31.58
33.367,33.811,37.154,35.38,32.473,31.549
33.341,33.814,37.036,35.453,32.433,31.52
33.314,33.821999999999996,36.922,35.521,32.391999999999996,31.494
33.285,33.832,36.811,35.582,32.351,31.47
33.257,33.843,36.703,35.634,32.309,31.449
33.229,33.85,36.596,35.676,32.266999999999996,31.430999999999997
33.199,33.852,36.492,35.709,32.228,31.416999999999998
33.167,33.848,36.389,35.733000000000004,32.191,31.406
33.133,33.836,36.287,35.749,32.162,31.398000000000003
33.098,33.817,36.187,35.756,32.141,31.392
33.061,33.791,36.086999999999996,35.753,32.132,31.386999999999997
33.024,33.759,35.988,35.74,32.14,31.383000000000003
32.986999999999995,33.721,35.89,35.717,32.168,31.378
32.951,33.679,35.793,35.683,32.221,31.373
32.917,33.635,35.696999999999996,35.641999999999996,32.304,31.365
32.885999999999996,33.591,35.605,35.591,32.419000000000004,31.355999999999998
32.858000000000004,33.547,35.516999999999996,35.533,32.573,31.343000000000004
32.833,33.504,35.433,35.468,32.766999999999996,31.328000000000003
32.812,33.464,35.355,35.396,33.004,31.311999999999998
32.795,33.426,35.283,35.318000000000005,33.283,31.296999999999997
32.784,33.391999999999996,35.219,35.236,33.604,31.283
32.779,33.361999999999995,35.161,35.149,33.965,31.271
32.783,33.336,35.113,35.061,34.361999999999995,31.263
32.8,33.315,35.074,34.97,34.79,31.26
32.830999999999996,33.297,35.045,34.878,35.244,31.264
32.88,33.284,35.027,34.784,35.716,31.276999999999997
32.948,33.273,35.016999999999996,34.689,36.2,31.303
33.038000000000004,33.264,35.014,34.594,36.689,31.345
33.150999999999996,33.257,35.016999999999996,34.499,37.178000000000004,31.409000000000002
33.289,33.253,35.025,34.405,37.662,31.5
33.451,33.251,35.039,34.314,38.135,31.627
33.639,33.251,35.058,34.224000000000004,38.593,31.798000000000002
33.852,33.255,35.080999999999996,34.135999999999996,39.032,32.021
34.09,33.263000000000005,35.107,34.05,39.445,32.302
34.349000000000004,33.275999999999996,35.137,33.965,39.829,32.648
34.626999999999995,33.297,35.17,33.882,40.18,33.06
34.921,33.329,35.205,33.8,40.494,33.537
35.224000000000004,33.374,35.244,33.72,40.769,34.076
35.533,33.435,35.286,33.641,41.003,34.67
35.843,33.513000000000005,35.329,33.563,41.196000000000005,35.309
36.147,33.611,35.371,33.486999999999995,41.346000000000004,35.981
36.443000000000005,33.731,35.411,33.413000000000004,41.453,36.675
36.724000000000004,33.874,35.446999999999996,33.341,41.516999999999996,37.378
36.989000000000004,34.04,35.477,33.274,41.538999999999994,38.077
37.234,34.23,35.501,33.21,41.522,38.762
37.458,34.44,35.518,33.15,41.468999999999994,39.421
37.66,34.669000000000004,35.527,33.096,41.383,40.045
37.838,34.913000000000004,35.527,33.046,41.269,40.628
37.994,35.17,35.519,33.001999999999995,41.13,41.163000000000004
38.126999999999995,35.435,35.501999999999995,32.961999999999996,40.971000000000004,41.646
38.238,35.705,35.477,32.926,40.793,42.074
38.326,35.977,35.445,32.894,40.6,42.445
38.394,36.247,35.406,32.866,40.395,42.758
38.443000000000005,36.513000000000005,35.361999999999995,32.839,40.181,43.013999999999996
38.474000000000004,36.773,35.315,32.815,39.96,43.217
38.489000000000004,37.024,35.263000000000005,32.794000000000004,39.735,43.369
38.488,37.266,35.209,32.774,39.509,43.476000000000006
38.474000000000004,37.497,35.153,32.757,39.282,43.541000000000004
38.446,37.715,35.095,32.74,39.056,43.568000000000005
38.408,37.919000000000004,35.036,32.724000000000004,38.832,43.56100000000001
38.359,38.107,34.975,32.707,38.613,43.523
38.302,38.279,34.913000000000004,32.688,38.4,43.456
38.236,38.431,34.849000000000004,32.669000000000004,38.193000000000005,43.361999999999995
38.163000000000004,38.564,34.784,32.65,37.992,43.243
38.083,38.677,34.717,32.63,37.797,43.1
38.0,38.769,34.65,32.611,37.609,42.931000000000004
37.914,38.841,34.583,32.592,37.427,42.735
37.826,38.891999999999996,34.515,32.574,37.25,42.512
37.738,38.921,34.448,32.555,37.079,42.269
37.65,38.93,34.381,32.537,36.911,42.011
37.562,38.918,34.315,32.52,36.745,41.742
37.475,38.889,34.251,32.505,36.582,41.468999999999994
37.388000000000005,38.841,34.189,32.491,36.421,41.195
37.302,38.778,34.129,32.478,36.262,40.923
37.217,38.701,34.071999999999996,32.468,36.106,40.656
37.133,38.611999999999995,34.016999999999996,32.459,35.954,40.394
37.053000000000004,38.514,33.964,32.451,35.808,40.137
36.975,38.408,33.913000000000004,32.444,35.671,39.885999999999996
36.899,38.296,33.865,32.437,35.543,39.638000000000005
36.824,38.18,33.82,32.431999999999995,35.428000000000004,39.396
36.748000000000005,38.062,33.777,32.43,35.325,39.157
36.673,37.942,33.736999999999995,32.43,35.238,38.921
36.597,37.824,33.7,32.431999999999995,35.168,38.69
36.521,37.708,33.667,32.435,35.115,38.461999999999996
36.446,37.596,33.635999999999996,32.437,35.080999999999996,38.236999999999995
36.372,37.486,33.608000000000004,32.438,35.065,38.015
36.3,37.381,33.580999999999996,32.437,35.065,37.796
36.229,37.279,33.553000000000004,32.435,35.080999999999996,37.578
36.16,37.181999999999995,33.521,32.431,35.111,37.361999999999995
36.093,37.086999999999996,33.484,32.425,35.155,37.145
36.029,36.996,33.444,32.418,35.211,36.929
35.966,36.911,33.403,32.408,35.275999999999996,36.715
35.907,36.830999999999996,33.361999999999995,32.396,35.35,36.503
35.851,36.756,33.321999999999996,32.383,35.431,36.297
35.801,36.683,33.286,32.368,35.518,36.097
35.757,36.611,33.254,32.352,35.608000000000004,35.907
35.719,36.538000000000004,33.227,32.336,35.699,35.729
35.688,36.464,33.205,32.321,35.79,35.562
35.663000000000004,36.387,33.188,32.306999999999995,35.879,35.41
35.644,36.308,33.175,32.295,35.965,35.273
35.632,36.225,33.166,32.285,36.047,35.154
35.625,36.14,33.161,32.275999999999996,36.124,35.053000000000004
35.623000000000005,36.054,33.157,32.269,36.194,34.971
35.626,35.97,33.156,32.263000000000005,36.257,34.908
35.633,35.888000000000005,33.155,32.259,36.31,34.865
35.646,35.812,33.156,32.258,36.353,34.842
35.662,35.743,33.157,32.26,36.383,34.838
35.681999999999995,35.681999999999995,33.158,32.266999999999996,36.402,34.853
35.704,35.631,33.159,32.281,36.408,34.885999999999996
35.727,35.591,33.159,32.305,36.402,34.938
35.75,35.562,33.157,32.341,36.385,35.006
35.773,35.543,33.153,32.391999999999996,36.358000000000004,35.089
35.794000000000004,35.533,33.146,32.46,36.321,35.187
35.813,35.533,33.138000000000005,32.552,36.275999999999996,35.297
35.829,35.54,33.128,32.671,36.224000000000004,35.418
35.842,35.555,33.117,32.821999999999996,36.164,35.547
35.852,35.577,33.105,33.01,36.098,35.683
35.857,35.604,33.091,33.236,36.025,35.823
35.859,35.635999999999996,33.075,33.503,35.946,35.965
35.856,35.673,33.059,33.811,35.86,36.106
35.849000000000004,35.713,33.043,34.158,35.769,36.242
35.836999999999996,35.757,33.027,34.542,35.674,36.372
35.82,35.803000000000004,33.010999999999996,34.957,35.573,36.491
35.798,35.848,32.996,35.398,35.469,36.598
35.772,35.89,32.98,35.856,35.36,36.69
35.741,35.929,32.961999999999996,36.323,35.249,36.764
35.705,35.961,32.943000000000005,36.791,35.135999999999996,36.819
35.664,35.986,32.922,37.251999999999995,35.022,36.855
35.618,36.005,32.902,37.698,34.907,36.872
35.567,36.016999999999996,32.883,38.122,34.793,36.87
35.510999999999996,36.021,32.865,38.518,34.679,36.85
35.452,36.02,32.85,38.881,34.567,36.813
35.389,36.012,32.84,39.205999999999996,34.459,36.76
35.323,35.998000000000005,32.836,39.491,34.356,36.694
35.257,35.978,32.84,39.735,34.258,36.617
35.188,35.952,32.855,39.938,34.165,36.528
35.119,35.922,32.884,40.1,34.076,36.43
35.048,35.885999999999996,32.931,40.224000000000004,33.992,36.321999999999996
34.978,35.846,32.997,40.313,33.913000000000004,36.205999999999996
34.908,35.802,33.086999999999996,40.369,33.842,36.083
34.839,35.755,33.2,40.395,33.779,35.954
34.771,35.705,33.34,40.395,33.724000000000004,35.821
34.704,35.653,33.507,40.374,33.675,35.685
34.638000000000005,35.598,33.701,40.335,33.633,35.548
34.573,35.54,33.922,40.281,33.593,35.41
34.509,35.478,34.168,40.215,33.556999999999995,35.272
34.446999999999996,35.414,34.435,40.139,33.52,35.133
34.385999999999996,35.347,34.719,40.055,33.481,34.993
34.327,35.278,35.018,39.964,33.439,34.852
34.27,35.207,35.327,39.867,33.393,34.71
34.214,35.134,35.643,39.764,33.342,34.567
34.161,35.059,35.963,39.657,33.287,34.425
34.109,34.984,36.283,39.545,33.229,34.284
34.06,34.907,36.601,39.429,33.171,34.144
34.013000000000005,34.83,36.913000000000004,39.31,33.111,34.006
33.968,34.754,37.216,39.188,33.053000000000004,33.869
33.925,34.68,37.509,39.064,32.996,33.735
33.884,34.608000000000004,37.788000000000004,38.94,32.942,33.602
33.845,34.54,38.051,38.814,32.891,33.472
33.808,34.474000000000004,38.295,38.689,32.844,33.346
33.773,34.413000000000004,38.518,38.563,32.801,33.223
33.739000000000004,34.355,38.719,38.437,32.762,33.105
33.707,34.302,38.894,38.312,32.728,32.993
33.676,34.253,39.044000000000004,38.188,32.696999999999996,32.885999999999996
33.649,34.208,39.167,38.065,32.669000000000004,32.786
33.624,34.169000000000004,39.260999999999996,37.943000000000005,32.644,32.692
33.603,34.133,39.327,37.82,32.622,32.604
33.584,34.101,39.364000000000004,37.696999999999996,32.603,32.522
33.566,34.071,39.374,37.574,32.586,32.445
33.549,34.042,39.359,37.452,32.57,32.373000000000005
33.531,34.014,39.321,37.330999999999996,32.554,32.306999999999995
33.515,33.986,39.262,37.211,32.539,32.246
33.5,33.958,39.185,37.091,32.525,32.19
33.486999999999995,33.93,39.092,36.971,32.510999999999996,32.137
33.473,33.903,38.985,36.851,32.497,32.086999999999996
33.46,33.876,38.866,36.733000000000004,32.483000000000004,32.04
33.446,33.849000000000004,38.739000000000004,36.617,32.467,31.996
33.431,33.823,38.605,36.505,32.449,31.956
33.416,33.796,38.467,36.396,32.43,31.918000000000003
33.4,33.769,38.327,36.291,32.408,31.883000000000003
33.383,33.742,38.185,36.19,32.383,31.85
33.367,33.716,38.044000000000004,36.095,32.355,31.816999999999997
33.352,33.69,37.903,36.006,32.324,31.785
33.336999999999996,33.663000000000004,37.765,35.925,32.291,31.753
33.325,33.635999999999996,37.63,35.853,32.259,31.721
33.313,33.609,37.499,35.793,32.227,31.69
33.303000000000004,33.583,37.372,35.744,32.199,31.660999999999998
33.292,33.558,37.249,35.708,32.175,31.634
33.28,33.535,37.13,35.681999999999995,32.158,31.61
33.266999999999996,33.513000000000005,37.014,35.667,32.150999999999996,31.589000000000002
33.253,33.494,36.900999999999996,35.661,32.159,31.57
33.236,33.475,36.79,35.665,32.184,31.552
33.218,33.457,36.683,35.677,32.232,31.535999999999998
33.196999999999996,33.441,36.577,35.696999999999996,32.305,31.522
33.175,33.425,36.474000000000004,35.724000000000004,32.409,31.509
33.152,33.411,36.372,35.757,32.548,31.497
33.128,33.396,36.273,35.795,32.725,31.487
33.105,33.381,36.174,35.836999999999996,32.943000000000005,31.478
33.082,33.365,36.076,35.882,33.2,31.469
33.06,33.348,35.979,35.93,33.499,31.459
33.04,33.329,35.884,35.98,33.836999999999996,31.449
33.021,33.31,35.792,36.029,34.211,31.436999999999998
33.004,33.29,35.704,36.076,34.616,31.424
32.99,33.269,35.62,36.12,35.048,31.410999999999998
32.98,33.248000000000005,35.542,36.16,35.499,31.397
32.976,33.226,35.471,36.196,35.966,31.383000000000003
32.979,33.205,35.407,36.225,36.442,31.369
32.991,33.185,35.351,36.249,36.92,31.354
33.015,33.165,35.305,36.266,37.395,31.34
33.053000000000004,33.149,35.268,36.275999999999996,37.861999999999995,31.328000000000003
33.108000000000004,33.135999999999996,35.24,36.279,38.315,31.319000000000003
33.181,33.129,35.22,36.273,38.748000000000005,31.316
33.277,33.129,35.207,36.260999999999996,39.156,31.320999999999998
33.396,33.138000000000005,35.201,36.24,39.536,31.338
33.542,33.156,35.202,36.211999999999996,39.884,31.37
33.716,33.184,35.209,36.177,40.196999999999996,31.421999999999997
33.918,33.223,35.221,36.137,40.473,31.502
34.148,33.274,35.239000000000004,36.091,40.71,31.616
34.403,33.341,35.26,36.038000000000004,40.907,31.772
34.68,33.423,35.285,35.979,41.06100000000001,31.98
34.975,33.525,35.311,35.913000000000004,41.174,32.246
35.284,33.647,35.341,35.841,41.246,32.577
35.601,33.789,35.372,35.763000000000005,41.277,32.975
35.922,33.953,35.405,35.68,41.27,33.441
36.242,34.139,35.438,35.591,41.225,33.974000000000004
36.556999999999995,34.344,35.47,35.498000000000005,41.147,34.567
36.863,34.569,35.501999999999995,35.400999999999996,41.037,35.21
37.158,34.81,35.532,35.303000000000004,40.899,35.893
37.437,35.064,35.559,35.203,40.736,36.603
37.699,35.328,35.583,35.104,40.554,37.326
37.943000000000005,35.599000000000004,35.602,35.005,40.356,38.048
38.166,35.874,35.616,34.907,40.146,38.757
38.367,36.15,35.625,34.811,39.927,39.442
38.544000000000004,36.425,35.626,34.715,39.705,40.095
38.699,36.694,35.62,34.621,39.48,40.707
38.832,36.955999999999996,35.606,34.529,39.255,41.273999999999994
38.943000000000005,37.208,35.586,34.438,39.031,41.791000000000004
39.034,37.448,35.558,34.35,38.81,42.255
39.104,37.674,35.525,34.266,38.591,42.665
39.155,37.885,35.486999999999995,34.185,38.376,43.02
39.187,38.079,35.442,34.106,38.165,43.321000000000005
39.201,38.254,35.391999999999996,34.031,37.958,43.567
39.198,38.411,35.336999999999996,33.957,37.756,43.76
39.179,38.548,35.28,33.884,37.559,43.902
39.146,38.665,35.222,33.814,37.367,43.994
39.1,38.76,35.162,33.748000000000005,37.179,44.04
39.045,38.832,35.103,33.684,36.996,44.042
38.981,38.883,35.047,33.624,36.817,44.003
38.909,38.911,34.994,33.567,36.64,43.927
38.830999999999996,38.919000000000004,34.942,33.513000000000005,36.467,43.816
38.748000000000005,38.905,34.891,33.461,36.298,43.676
38.663000000000004,38.871,34.84,33.41,36.132,43.51
38.574,38.819,34.787,33.359,35.971,43.323
38.484,38.751999999999995,34.733000000000004,33.309,35.815,43.118
38.391999999999996,38.672,34.677,33.260999999999996,35.665,42.898
38.3,38.580999999999996,34.617,33.215,35.522,42.665
38.21,38.481,34.555,33.171,35.389,42.419
38.121,38.374,34.49,33.128,35.266999999999996,42.163999999999994
38.034,38.260999999999996,34.423,33.088,35.158,41.901
37.948,38.145,34.354,33.049,35.064,41.631
37.864000000000004,38.028,34.285,33.012,34.985,41.356
37.782,37.911,34.217,32.978,34.923,41.076
37.702,37.795,34.150999999999996,32.946,34.878,40.794000000000004
37.622,37.681999999999995,34.086999999999996,32.917,34.848,40.512
37.544000000000004,37.571999999999996,34.025,32.891,34.834,40.232
37.467,37.465,33.966,32.866,34.835,39.953
37.391,37.363,33.91,32.841,34.851,39.678000000000004
37.314,37.263000000000005,33.858000000000004,32.817,34.882,39.407
37.238,37.167,33.809,32.794000000000004,34.927,39.139
37.16,37.074,33.763000000000005,32.774,34.985,38.874
37.08,36.985,33.72,32.756,35.056,38.611999999999995
36.997,36.897,33.679,32.74,35.137,38.355
36.913000000000004,36.811,33.641,32.725,35.227,38.103
36.827,36.728,33.606,32.711999999999996,35.321999999999996,37.856
36.743,36.648,33.574,32.7,35.42,37.615
36.661,36.571,33.545,32.688,35.519,37.382
36.580999999999996,36.497,33.519,32.677,35.618,37.156
36.503,36.425,33.494,32.668,35.713,36.937
36.427,36.353,33.47,32.66,35.803000000000004,36.726
36.353,36.282,33.446999999999996,32.654,35.887,36.522
36.282,36.211,33.422,32.648,35.963,36.329
36.215,36.14,33.396,32.641999999999996,36.033,36.146
36.150999999999996,36.069,33.369,32.635999999999996,36.094,35.975
36.092,35.999,33.342,32.629,36.144,35.817
36.038000000000004,35.931,33.316,32.621,36.184,35.675
35.991,35.865,33.291,32.611999999999995,36.213,35.547
35.952,35.804,33.269,32.602,36.231,35.435
35.921,35.748000000000005,33.248000000000005,32.593,36.238,35.338
35.896,35.698,33.23,32.583,36.234,35.257
35.879,35.655,33.215,32.574,36.222,35.191
35.868,35.619,33.203,32.566,36.2,35.14
35.863,35.59,33.193000000000005,32.558,36.17,35.104
35.865,35.57,33.186,32.549,36.134,35.084
35.874,35.556999999999995,33.181,32.542,36.089,35.082
35.889,35.553000000000004,33.177,32.535,36.036,35.096
35.911,35.556999999999995,33.174,32.529,35.974000000000004,35.128
35.938,35.567,33.17,32.523,35.904,35.177
35.969,35.583,33.164,32.518,35.827,35.242
36.001999999999995,35.605,33.158,32.513000000000005,35.743,35.321
36.037,35.631,33.15,32.508,35.650999999999996,35.413000000000004
36.071999999999996,35.659,33.141999999999996,32.501999999999995,35.554,35.516999999999996
36.107,35.689,33.132,32.496,35.452,35.63
36.139,35.722,33.122,32.489000000000004,35.346,35.75
36.169000000000004,35.760999999999996,33.11,32.481,35.238,35.876
36.195,35.808,33.098,32.472,35.13,36.005
36.218,35.86,33.084,32.461,35.023,36.134
36.236,35.914,33.071,32.449,34.917,36.26
36.248000000000005,35.967,33.058,32.436,34.814,36.381
36.251999999999995,36.013000000000005,33.047,32.421,34.714,36.494
36.248000000000005,36.051,33.036,32.405,34.618,36.597
36.234,36.077,33.024,32.388000000000005,34.525,36.687
36.21,36.089,33.01,32.372,34.435,36.764
36.177,36.088,32.994,32.359,34.348,36.827
36.135999999999996,36.071999999999996,32.975,32.348,34.263000000000005,36.874
36.086999999999996,36.043,32.955,32.342,34.181,36.907
36.031,36.001,32.934,32.342,34.104,36.925
35.97,35.949,32.913000000000004,32.348,34.029,36.927
35.903,35.89,32.891999999999996,32.361999999999995,33.958,36.913000000000004
35.832,35.824,32.871,32.385999999999996,33.888000000000005,36.884
35.759,35.754,32.85,32.424,33.819,36.841
35.685,35.681,32.830999999999996,32.479,33.751999999999995,36.783
35.61,35.606,32.814,32.556,33.686,36.711999999999996
35.535,35.531,32.803000000000004,32.659,33.622,36.626999999999995
35.461,35.457,32.8,32.792,33.559,36.531
35.387,35.384,32.808,32.959,33.498000000000005,36.424
35.315,35.313,32.828,33.164,33.439,36.305
35.243,35.244,32.863,33.411,33.382,36.176
35.173,35.177,32.917,33.701,33.328,36.038000000000004
35.104,35.111999999999995,32.992,34.033,33.275999999999996,35.891999999999996
35.037,35.048,33.091,34.406,33.227,35.74
34.97,34.986,33.217,34.816,33.18,35.583
34.905,34.925,33.37,35.257,33.135,35.421
34.842,34.866,33.551,35.721,33.094,35.257
34.78,34.808,33.758,36.201,33.056999999999995,35.092
34.72,34.75,33.99,36.689,33.023,34.928000000000004
34.661,34.692,34.244,37.175,32.992,34.766
34.603,34.633,34.516999999999996,37.65,32.964,34.606
34.545,34.574,34.806,38.106,32.936,34.45
34.49,34.516999999999996,35.107,38.535,32.91,34.299
34.435,34.46,35.418,38.931,32.885,34.153
34.383,34.405,35.735,39.29,32.861999999999995,34.013000000000005
34.334,34.35,36.054,39.609,32.84,33.878
34.288000000000004,34.296,36.373000000000005,39.885999999999996,32.819,33.748000000000005
34.245,34.244,36.688,40.12,32.8,33.624
34.203,34.195,36.997,40.311,32.782,33.505
34.161,34.147,37.298,40.461,32.764,33.391
34.119,34.101,37.59,40.573,32.747,33.283
34.074,34.058,37.868,40.649,32.728,33.179
34.028,34.018,38.132,40.694,32.708,33.08
33.981,33.98,38.376999999999995,40.711,32.687,32.985
33.935,33.944,38.603,40.703,32.664,32.894
33.891999999999996,33.91,38.806,40.674,32.639,32.806
33.851,33.878,38.984,40.626,32.611999999999995,32.721
33.813,33.847,39.135,40.563,32.584,32.637
33.777,33.818000000000005,39.257,40.488,32.555,32.555
33.743,33.79,39.351,40.403,32.524,32.474000000000004
33.711,33.763000000000005,39.416,40.309,32.492,32.396
33.68,33.738,39.454,40.208,32.46,32.321
33.650999999999996,33.715,39.465,40.103,32.429,32.249
33.623000000000005,33.694,39.452,39.993,32.398,32.181
33.597,33.673,39.418,39.88,32.369,32.117
33.571999999999996,33.652,39.361999999999995,39.764,32.341,32.056999999999995
33.549,33.631,39.286,39.647,32.315,32.001999999999995
33.527,33.61,39.193000000000005,39.529,32.292,31.953000000000003
33.506,33.591,39.084,39.409,32.271,31.912
33.484,33.579,38.961,39.287,32.253,31.878
33.461,33.58,38.827,39.164,32.239000000000004,31.851
33.438,33.593,38.684,39.04,32.23,31.829
33.415,33.615,38.535,38.916,32.227,31.811999999999998
33.391999999999996,33.644,38.383,38.792,32.231,31.798000000000002
33.371,33.674,38.23,38.669000000000004,32.246,31.785
33.351,33.7,38.078,38.547,32.275,31.771
33.333,33.721,37.93,38.426,32.321999999999996,31.756
33.315,33.733000000000004,37.785,38.306999999999995,32.391999999999996,31.739
33.299,33.735,37.645,38.19,32.488,31.72
33.284,33.725,37.51,38.076,32.614000000000004,31.7
33.27,33.704,37.38,37.961999999999996,32.775,31.68
33.257,33.674,37.256,37.85,32.973,31.659000000000002
33.242,33.635,37.138000000000005,37.738,33.211,31.639
33.227,33.589,37.023,37.626999999999995,33.49,31.619
33.21,33.538000000000004,36.913000000000004,37.515,33.806999999999995,31.598000000000003
33.19,33.483000000000004,36.805,37.402,34.159,31.576
33.167,33.427,36.7,37.289,34.543,31.554000000000002
33.143,33.369,36.598,37.175,34.955,31.531999999999996
33.117,33.313,36.497,37.059,35.389,31.511
33.09,33.26,36.399,36.942,35.839,31.491999999999997
33.064,33.21,36.304,36.824,36.299,31.476
33.039,33.165,36.21,36.707,36.764,31.46
33.016999999999996,33.125,36.119,36.592,37.228,31.444000000000003
32.998000000000005,33.092,36.029,36.48,37.686,31.428
32.984,33.065,35.942,36.373000000000005,38.132,31.410999999999998
32.976,33.044000000000004,35.857,36.272,38.561,31.392
32.976,33.031,35.775,36.18,38.968,31.372
32.988,33.024,35.696,36.097,39.35,31.351
33.013000000000005,33.021,35.621,36.025999999999996,39.702,31.328000000000003
33.054,33.021,35.55,35.967,40.022,31.304000000000002
33.113,33.023,35.484,35.92,40.306999999999995,31.278000000000002
33.194,33.032,35.424,35.884,40.553000000000004,31.252
33.298,33.049,35.37,35.86,40.76,31.226999999999997
33.429,33.08,35.324,35.845,40.924,31.203000000000003
33.586999999999996,33.129,35.287,35.84,41.04600000000001,31.183000000000003
33.773,33.2,35.259,35.844,41.126000000000005,31.168000000000003
33.986,33.295,35.24,35.855,41.163999999999994,31.159000000000002
34.227,33.417,35.229,35.872,41.162,31.16
34.491,33.567,35.227,35.896,41.122,31.173000000000002
34.777,33.743,35.235,35.925,41.048,31.2
35.079,33.944,35.25,35.957,40.943000000000005,31.246
35.394,34.167,35.274,35.993,40.81,31.319000000000003
35.714,34.409,35.303000000000004,36.032,40.652,31.425
36.035,34.665,35.338,36.073,40.472,31.572
36.349000000000004,34.931999999999995,35.375,36.115,40.274,31.768
36.653,35.207,35.414,36.157,40.064,32.021
36.94,35.484,35.452,36.198,39.844,32.335
37.209,35.759,35.488,36.236999999999995,39.618,32.714
37.457,36.03,35.522,36.272,39.39,33.16
37.683,36.296,35.553000000000004,36.302,39.16,33.669000000000004
37.887,36.554,35.582,36.328,38.931,34.236999999999995
38.067,36.801,35.606,36.346,38.705,34.856
38.224000000000004,37.036,35.626999999999995,36.357,38.48,35.515
38.358000000000004,37.259,35.645,36.36,38.258,36.203
38.469,37.466,35.657,36.356,38.04,36.907
38.556999999999995,37.658,35.665,36.344,37.825,37.616
38.623000000000005,37.832,35.669000000000004,36.324,37.613,38.318000000000005
38.669000000000004,37.988,35.668,36.296,37.406,39.001
38.695,38.124,35.663000000000004,36.26,37.204,39.655
38.703,38.24,35.653,36.216,37.007,40.273
38.696,38.335,35.638000000000005,36.164,36.814,40.847
38.675,38.41,35.617,36.105,36.626999999999995,41.373000000000005
38.64,38.466,35.592,36.041,36.444,41.846000000000004
38.593,38.501999999999995,35.561,35.971,36.266,42.265
38.535,38.518,35.524,35.895,36.092,42.626999999999995
38.469,38.515,35.483000000000004,35.814,35.922,42.933
38.395,38.493,35.437,35.73,35.759,43.185
38.314,38.453,35.387,35.641,35.602,43.382
38.228,38.399,35.330999999999996,35.55,35.452,43.528999999999996
38.135999999999996,38.33,35.272,35.457,35.312,43.626000000000005
38.04,38.25,35.209,35.361999999999995,35.181999999999995,43.675
37.942,38.16,35.145,35.266999999999996,35.065,43.68
37.843,38.063,35.08,35.172,34.961999999999996,43.643
37.744,37.96,35.014,35.076,34.876,43.568999999999996
37.644,37.855,34.95,34.982,34.806,43.46
37.543,37.748000000000005,34.885999999999996,34.888000000000005,34.754,43.321999999999996
37.444,37.641,34.821999999999996,34.796,34.72,43.157
37.347,37.534,34.758,34.705,34.704,42.971000000000004
37.251999999999995,37.429,34.695,34.617,34.705,42.766000000000005
37.16,37.325,34.631,34.53,34.722,42.545
37.071999999999996,37.224000000000004,34.567,34.445,34.754,42.31
36.986999999999995,37.124,34.501999999999995,34.361,34.801,42.06399999999999
36.905,37.027,34.438,34.279,34.86,41.806999999999995
36.825,36.93,34.373000000000005,34.198,34.931999999999995,41.542
36.747,36.834,34.31,34.118,35.015,41.271
36.669000000000004,36.739000000000004,34.248000000000005,34.039,35.106,40.995
36.591,36.645,34.188,33.961,35.204,40.715
36.510999999999996,36.552,34.131,33.885,35.308,40.433
36.431,36.46,34.076,33.81,35.415,40.150999999999996
36.352,36.369,34.023,33.736999999999995,35.522,39.871
36.272,36.279,33.974000000000004,33.667,35.626999999999995,39.594
36.194,36.191,33.927,33.599000000000004,35.728,39.321
36.116,36.104,33.884,33.536,35.825,39.053000000000004
36.039,36.019,33.843,33.475,35.915,38.791
35.964,35.936,33.805,33.419000000000004,35.998000000000005,38.534
35.891999999999996,35.856,33.77,33.366,36.071999999999996,38.282
35.824,35.78,33.736,33.316,36.135999999999996,38.035
35.76,35.709,33.704,33.27,36.19,37.793
35.702,35.641,33.674,33.228,36.233000000000004,37.555
35.65,35.578,33.645,33.19,36.264,37.321999999999996
35.605,35.52,33.617,33.156,36.283,37.094
35.568000000000005,35.466,33.589,33.126,36.29,36.87
35.537,35.418,33.562,33.099000000000004,36.287,36.650999999999996
35.514,35.376,33.535,33.074,36.272,36.437
35.498000000000005,35.34,33.509,33.052,36.248000000000005,36.231
35.489000000000004,35.311,33.482,33.03,36.213,36.032
35.485,35.288000000000004,33.457,33.008,36.17,35.844
35.486,35.273,33.433,32.985,36.119,35.665
35.492,35.265,33.411,32.961,36.058,35.494
35.501,35.264,33.391999999999996,32.936,35.99,35.33
35.515,35.269,33.374,32.911,35.913000000000004,35.176
35.531,35.282,33.358000000000004,32.885999999999996,35.828,35.034
35.55,35.3,33.343,32.86,35.736,34.908
35.57,35.325,33.328,32.836,35.638000000000005,34.801
35.591,35.355,33.314,32.812,35.534,34.716
35.611,35.389,33.302,32.79,35.426,34.654
35.63,35.427,33.29,32.772,35.316,34.619
35.645,35.468,33.28,32.757,35.203,34.611
35.656,35.51,33.27,32.744,35.091,34.63
35.661,35.552,33.26,32.735,34.979,34.675
35.659,35.593,33.251,32.728,34.87,34.744
35.653,35.63,33.241,32.724000000000004,34.763000000000005,34.833
35.643,35.661,33.23,32.721,34.66,34.94
35.63,35.686,33.22,32.72,34.56,35.063
35.614000000000004,35.705,33.211,32.72,34.464,35.199
35.596,35.718,33.204,32.721,34.371,35.344
35.576,35.723,33.196999999999996,32.72,34.282,35.496
35.555,35.723,33.192,32.719,34.196,35.650999999999996
35.532,35.718,33.188,32.717,34.113,35.805
35.506,35.705999999999996,33.184,32.713,34.032,35.954
35.477,35.689,33.181,32.705999999999996,33.954,36.096
35.445,35.667,33.177,32.696,33.876999999999995,36.227
35.409,35.639,33.172,32.681999999999995,33.802,36.345
35.37,35.607,33.164,32.666,33.728,36.45
35.328,35.571,33.156,32.648,33.653,36.54
35.281,35.531,33.145,32.628,33.579,36.616
35.23,35.486,33.133,32.608000000000004,33.504,36.677
35.176,35.438,33.118,32.589,33.431999999999995,36.725
35.118,35.388000000000005,33.103,32.57,33.363,36.759
35.056999999999995,35.335,33.085,32.552,33.297,36.779
34.995,35.279,33.066,32.535,33.236,36.785
34.93,35.221,33.046,32.52,33.178000000000004,36.774
34.865,35.162,33.025999999999996,32.507,33.126,36.748000000000005
34.799,35.101,33.006,32.498000000000005,33.079,36.707
34.732,35.039,32.986,32.49,33.037,36.650999999999996
34.665,34.976,32.968,32.484,32.998000000000005,36.580999999999996
34.6,34.912,32.953,32.478,32.961999999999996,36.5
34.537,34.848,32.942,32.47,32.926,36.408
34.478,34.784,32.937,32.461,32.89,36.305
34.421,34.721,32.939,32.45,32.855,36.192
34.367,34.66,32.951,32.437,32.82,36.07
34.314,34.6,32.975,32.424,32.786,35.939
34.262,34.543,33.013000000000005,32.411,32.753,35.799
34.21,34.486999999999995,33.07,32.396,32.721,35.650999999999996
34.158,34.431999999999995,33.146,32.382,32.69,35.497
34.104,34.38,33.246,32.367,32.662,35.339
34.048,34.329,33.371,32.355,32.637,35.177
33.992,34.279,33.524,32.346,32.615,35.013000000000005
33.934,34.231,33.705,32.343,32.595,34.85
33.876999999999995,34.183,33.915,32.347,32.577,34.687
33.818000000000005,34.135999999999996,34.150999999999996,32.36,32.562,34.525999999999996
33.76,34.09,34.411,32.383,32.548,34.366
33.703,34.045,34.692,32.42,32.536,34.21
33.648,34.001,34.991,32.473,32.525999999999996,34.056999999999995
33.596,33.96,35.304,32.544000000000004,32.516,33.908
33.548,33.92,35.626,32.639,32.507,33.765
33.504,33.883,35.953,32.763000000000005,32.497,33.626999999999995
33.464,33.848,36.28,32.92,32.486,33.493
33.427,33.815,36.603,33.115,32.474000000000004,33.365
33.393,33.784,36.917,33.349000000000004,32.46,33.24
33.361999999999995,33.756,37.22,33.624,32.444,33.119
33.333,33.731,37.510999999999996,33.94,32.425,33.001
33.306,33.708,37.786,34.295,32.404,32.885999999999996
33.282,33.686,38.044000000000004,34.686,32.38,32.775
33.26,33.667,38.283,35.108000000000004,32.354,32.667
33.239000000000004,33.648,38.503,35.555,32.325,32.563
33.22,33.63,38.702,36.018,32.294000000000004,32.464
33.203,33.613,38.876999999999995,36.491,32.262,32.369
33.188,33.597,39.029,36.963,32.231,32.278
33.175,33.58,39.154,37.429,32.2,32.192
33.163000000000004,33.564,39.254,37.879,32.172,32.11
33.152,33.547,39.327,38.308,32.147,32.033
33.14,33.531,39.373000000000005,38.708,32.124,31.959
33.129,33.514,39.393,39.074,32.106,31.89
33.119,33.496,39.388000000000005,39.402,32.093,31.825
33.109,33.477,39.358000000000004,39.689,32.085,31.765
33.1,33.458,39.306,39.934,32.086,31.71
33.091,33.439,39.231,40.138000000000005,32.097,31.660999999999998
33.082,33.422,39.139,40.303000000000004,32.121,31.616999999999997
33.075,33.405,39.03,40.43,32.164,31.576999999999998
33.069,33.39,38.909,40.523,32.229,31.541999999999998
33.065,33.376,38.777,40.585,32.321,31.511
33.064,33.363,38.638000000000005,40.618,32.444,31.483
33.065,33.351,38.493,40.626,32.605,31.458000000000002
33.071,33.34,38.346,40.611,32.806,31.436999999999998
33.079,33.33,38.199,40.574,33.05,31.419
33.091,33.32,38.052,40.518,33.336999999999996,31.403000000000002
33.106,33.311,37.908,40.445,33.666,31.388
33.126,33.301,37.766999999999996,40.359,34.032,31.373
33.15,33.291,37.632,40.260999999999996,34.433,31.359
33.179,33.28,37.501,40.154,34.861,31.345
33.213,33.268,37.375,40.039,35.31,31.331999999999997
33.253,33.255,37.254,39.918,35.773,31.318
33.301,33.241,37.135999999999996,39.791,36.244,31.304000000000002
33.356,33.226,37.023,39.66,36.715,31.29
33.422,33.211,36.912,39.527,37.181999999999995,31.276
33.499,33.196999999999996,36.805,39.391999999999996,37.638000000000005,31.261
33.589,33.186,36.701,39.257,38.074,31.245
33.695,33.18,36.599000000000004,39.122,38.486,31.229
33.818000000000005,33.181,36.499,38.986999999999995,38.87,31.212
33.96,33.19,36.402,38.853,39.224000000000004,31.195
34.121,33.21,36.306999999999995,38.72,39.545,31.177
34.302,33.244,36.215,38.586999999999996,39.832,31.158
34.504,33.295,36.125,38.453,40.084,31.139
34.725,33.363,36.038000000000004,38.319,40.299,31.12
34.964,33.451,35.953,38.185,40.477,31.101
35.218,33.56,35.872,38.053000000000004,40.617,31.081
35.484,33.69,35.794000000000004,37.923,40.72,31.061
35.76,33.843,35.719,37.796,40.784,31.04
36.041,34.016999999999996,35.647,37.672,40.811,31.019000000000002
36.325,34.21,35.58,37.551,40.803000000000004,30.997
36.609,34.421,35.516999999999996,37.433,40.760999999999996,30.976
36.889,34.647,35.46,37.317,40.689,30.956
37.162,34.885,35.41,37.203,40.586,30.936999999999998
37.425,35.132,35.368,37.092,40.457,30.92
37.676,35.384,35.334,36.983000000000004,40.302,30.905
37.91,35.639,35.306999999999995,36.876,40.126,30.892
38.126999999999995,35.891999999999996,35.289,36.772,39.931999999999995,30.883000000000003
38.323,36.141999999999996,35.277,36.669000000000004,39.724000000000004,30.877
38.5,36.383,35.274,36.567,39.507,30.875999999999998
38.657,36.615,35.278,36.468,39.282,30.884
38.794000000000004,36.834,35.291,36.371,39.053000000000004,30.901999999999997
38.911,37.04,35.31,36.279,38.821,30.934
39.005,37.229,35.335,36.192,38.589,30.984
39.078,37.402,35.364000000000004,36.11,38.359,31.057
39.128,37.559,35.396,36.034,38.132,31.159000000000002
39.156,37.699,35.431,35.964,37.91,31.296
39.162,37.821999999999996,35.468,35.900999999999996,37.692,31.475
39.147,37.927,35.505,35.845,37.48,31.703000000000003
39.115,38.014,35.543,35.797,37.273,31.988000000000003
39.068000000000005,38.083,35.58,35.758,37.071,32.335
39.008,38.134,35.615,35.728,36.876999999999995,32.747
38.934,38.168,35.646,35.709,36.689,33.224000000000004
38.849000000000004,38.183,35.673,35.7,36.508,33.763000000000005
38.751999999999995,38.181999999999995,35.695,35.7,36.332,34.355
38.645,38.165,35.711,35.711,36.162,34.992
38.53,38.134,35.72,35.731,35.996,35.661
38.408,38.09,35.724000000000004,35.758,35.834,36.35
38.279,38.035,35.721,35.792,35.678000000000004,37.046
38.146,37.969,35.711999999999996,35.833,35.528,37.735
38.01,37.895,35.696999999999996,35.876999999999995,35.383,38.405
37.873000000000005,37.814,35.676,35.925,35.244,39.046
37.736,37.726,35.65,35.974000000000004,35.113,39.647
37.603,37.633,35.618,36.024,34.991,40.203
37.473,37.536,35.582,36.074,34.881,40.707
37.348,37.436,35.542,36.121,34.783,41.157
37.228,37.333,35.497,36.165,34.7,41.551
37.115,37.228,35.449,36.203,34.632,41.888000000000005
37.009,37.121,35.399,36.234,34.580999999999996,42.17
36.912,37.016,35.347,36.26,34.548,42.396
36.823,36.912,35.292,36.278,34.532,42.57
36.744,36.811,35.236,36.287,34.534,42.693000000000005
36.672,36.713,35.178000000000004,36.288000000000004,34.552,42.768
36.608000000000004,36.617,35.119,36.281,34.586,42.797
36.55,36.523,35.059,36.265,34.635999999999996,42.784
36.498000000000005,36.431,34.998000000000005,36.24,34.699,42.733000000000004
36.45,36.34,34.936,36.205999999999996,34.774,42.647
36.404,36.251999999999995,34.873000000000005,36.165,34.861,42.531000000000006
36.361999999999995,36.164,34.81,36.116,34.958,42.388999999999996
36.323,36.077,34.746,36.06,35.061,42.225
36.288000000000004,35.992,34.683,35.999,35.171,42.042
36.254,35.908,34.618,35.934,35.283,41.843
36.223,35.827,34.554,35.863,35.395,41.632
36.194,35.749,34.491,35.788000000000004,35.505,41.408
36.167,35.672,34.429,35.709,35.608000000000004,41.172
36.141,35.599000000000004,34.368,35.626,35.705,40.927
36.118,35.529,34.308,35.54,35.792,40.671
36.095,35.461999999999996,34.251,35.451,35.868,40.406
36.074,35.398,34.194,35.36,35.933,40.133
36.055,35.338,34.139,35.266999999999996,35.986,39.854
36.037,35.284,34.086,35.172,36.027,39.571
36.021,35.236,34.034,35.077,36.055,39.285
36.008,35.196,33.985,34.98,36.071,38.999
35.998000000000005,35.164,33.938,34.884,36.075,38.714
35.991,35.14,33.893,34.787,36.068000000000005,38.431
35.986,35.125,33.851,34.69,36.048,38.15
35.982,35.12,33.812,34.594,36.019,37.873000000000005
35.979,35.124,33.775999999999996,34.499,35.98,37.599000000000004
35.977,35.135,33.743,34.405,35.933,37.33
35.974000000000004,35.153,33.711,34.313,35.878,37.066
35.971,35.177,33.681999999999995,34.223,35.816,36.806
35.967,35.205999999999996,33.654,34.135,35.747,36.553000000000004
35.961999999999996,35.239000000000004,33.628,34.051,35.673,36.306999999999995
35.955,35.275,33.604,33.97,35.594,36.067
35.946,35.313,33.58,33.891999999999996,35.510999999999996,35.834
35.933,35.353,33.556999999999995,33.819,35.422,35.609
35.917,35.393,33.532,33.749,35.330999999999996,35.394
35.896,35.431999999999995,33.507,33.683,35.236,35.189
35.869,35.469,33.48,33.62,35.138000000000005,34.994
35.838,35.504,33.454,33.559,35.038000000000004,34.812
35.802,35.536,33.428000000000004,33.501999999999995,34.937,34.643
35.762,35.565,33.403,33.448,34.836,34.489000000000004
35.718,35.589,33.38,33.395,34.734,34.351
35.669000000000004,35.609,33.358000000000004,33.345,34.632,34.228
35.616,35.625,33.338,33.295,34.529,34.123000000000005
35.559,35.632,33.318000000000005,33.247,34.425,34.035
35.497,35.629,33.301,33.201,34.321999999999996,33.966
35.431999999999995,35.614000000000004,33.287,33.155,34.219,33.916
35.363,35.586999999999996,33.274,33.111999999999995,34.118,33.885
35.29,35.552,33.264,33.071999999999996,34.019,33.874
35.214,35.510999999999996,33.256,33.035,33.921,33.883
35.135,35.465,33.249,33.0,33.826,33.911
35.054,35.417,33.243,32.968,33.734,33.958
34.972,35.369,33.236999999999995,32.938,33.647,34.025
34.89,35.321,33.231,32.911,33.563,34.11
34.808,35.274,33.224000000000004,32.885999999999996,33.483000000000004,34.211999999999996
34.726,35.229,33.217,32.864000000000004,33.407,34.330999999999996
34.645,35.186,33.209,32.843,33.335,34.465
34.566,35.144,33.2,32.825,33.266,34.611
34.49,35.103,33.19,32.809,33.2,34.769
34.417,35.061,33.18,32.795,33.139,34.934
34.349000000000004,35.016999999999996,33.169000000000004,32.782,33.08,35.105
34.287,34.971,33.158,32.77,33.024,35.275
34.229,34.923,33.147,32.759,32.97,35.444
34.176,34.873000000000005,33.135999999999996,32.748000000000005,32.918,35.606
34.128,34.819,33.123000000000005,32.736,32.869,35.76
34.083,34.764,33.105,32.722,32.823,35.900999999999996
34.043,34.705999999999996,33.076,32.707,32.779,36.027
34.007,34.647,33.037,32.692,32.738,36.135999999999996
33.973,34.588,32.99,32.677,32.7,36.228
33.941,34.528,32.939,32.663000000000004,32.665,36.301
33.909,34.469,32.887,32.65,32.634,36.354
33.876999999999995,34.412,32.839,32.64,32.606,36.389
33.846,34.356,32.797,32.631,32.582,36.405
33.815,34.302,32.764,32.624,32.561,36.402
33.783,34.25,32.743,32.617,32.543,36.379
33.751,34.201,32.733000000000004,32.61,32.527,36.336999999999996
33.717,34.156,32.736,32.603,32.513000000000005,36.278
33.684,34.113,32.751999999999995,32.597,32.5,36.203
33.65,34.074,32.78,32.59,32.486999999999995,36.114000000000004
33.617,34.038000000000004,32.821,32.583,32.473,36.013000000000005
33.584,34.003,32.875,32.576,32.457,35.900999999999996
33.551,33.969,32.946,32.569,32.44,35.781
33.518,33.935,33.033,32.562,32.422,35.653
33.485,33.900999999999996,33.14,32.555,32.402,35.518
33.451,33.865,33.268,32.549,32.381,35.378
33.418,33.829,33.418,32.543,32.36,35.233000000000004
33.385999999999996,33.792,33.593,32.536,32.336999999999996,35.084
33.355,33.755,33.792,32.529,32.313,34.931999999999995
33.325,33.72,34.016,32.52,32.29,34.78
33.295,33.687,34.264,32.509,32.266999999999996,34.626999999999995
33.264,33.656,34.533,32.496,32.244,34.476
33.232,33.628,34.821,32.48,32.221,34.326
33.201,33.603,35.123000000000005,32.464,32.198,34.18
33.169000000000004,33.580999999999996,35.436,32.446999999999996,32.176,34.036
33.138000000000005,33.562,35.755,32.429,32.154,33.894
33.108000000000004,33.546,36.076,32.41,32.133,33.754
33.078,33.532,36.396,32.39,32.111999999999995,33.616
33.049,33.52,36.709,32.37,32.092,33.48
33.021,33.509,37.013000000000005,32.348,32.071999999999996,33.346
32.996,33.498000000000005,37.305,32.327,32.052,33.216
32.974000000000004,33.486999999999995,37.582,32.306,32.035,33.09
32.953,33.476,37.844,32.288000000000004,32.019,32.969
32.933,33.464,38.089,32.273,32.005,32.852
32.915,33.452,38.316,32.262,31.993000000000002,32.739000000000004
32.899,33.44,38.523,32.257,31.985,32.629
32.883,33.426,38.71,32.26,31.98,32.524
32.868,33.411,38.873000000000005,32.273,31.982,32.424
32.851,33.395,39.012,32.301,31.991,32.329
32.833,33.379,39.126,32.345,32.01,32.239000000000004
32.813,33.361,39.214,32.41,32.043,32.156
32.792,33.341,39.277,32.498000000000005,32.093,32.078
32.769,33.321,39.315,32.614000000000004,32.164,32.005
32.747,33.3,39.328,32.76,32.262,31.936999999999998
32.725,33.279,39.319,32.942,32.39,31.873
32.702,33.258,39.289,33.162,32.554,31.814
32.678000000000004,33.238,39.239000000000004,33.422,32.756,31.758000000000003
32.653,33.218,39.171,33.724000000000004,32.998000000000005,31.706999999999997
32.626999999999995,33.199,39.086999999999996,34.068000000000005,33.283,31.659000000000002
32.601,33.181999999999995,38.988,34.449,33.608000000000004,31.614
32.574,33.165,38.878,34.864000000000004,33.969,31.572
32.55,33.149,38.757,35.306999999999995,34.361999999999995,31.531
32.528,33.135999999999996,38.628,35.769,34.781,31.491999999999997
32.51,33.126,38.494,36.244,35.219,31.455
32.498000000000005,33.12,38.355,36.723,35.67,31.42
32.493,33.118,38.213,37.198,36.126999999999995,31.386999999999997
32.498000000000005,33.121,38.071,37.66,36.584,31.358
32.515,33.128,37.929,38.101,37.036,31.331999999999997
32.55,33.141999999999996,37.789,38.512,37.478,31.309
32.607,33.164,37.652,38.89,37.904,31.29
32.69,33.196,37.52,39.228,38.311,31.273000000000003
32.801,33.24,37.391,39.525999999999996,38.693000000000005,31.26
32.939,33.298,37.266,39.78,39.049,31.25
33.105,33.372,37.144,39.993,39.376,31.244
33.297,33.465,37.025999999999996,40.162,39.67,31.239
33.515,33.579,36.912,40.291,39.928000000000004,31.236
33.756,33.715,36.8,40.381,40.149,31.234
34.018,33.874,36.692,40.434,40.330999999999996,31.232
34.297,34.054,36.586,40.455,40.471,31.230999999999998
34.59,34.255,36.483000000000004,40.446,40.57,31.23
34.893,34.475,36.383,40.411,40.629,31.229
35.201,34.71,36.285,40.354,40.648,31.226999999999997
35.51,34.959,36.19,40.278,40.63,31.225
35.815,35.219,36.097,40.187,40.576,31.22
36.111999999999995,35.484,36.007,40.084,40.49,31.211
36.397,35.751999999999995,35.92,39.971,40.375,31.198
36.666,36.019,35.835,39.849000000000004,40.234,31.182
36.915,36.282,35.754,39.721,40.071,31.164
37.144,36.54,35.677,39.588,39.889,31.144000000000002
37.349000000000004,36.79,35.604,39.451,39.691,31.123
37.53,37.029,35.536,39.312,39.483000000000004,31.101999999999997
37.687,37.257,35.474000000000004,39.177,39.265,31.081999999999997
37.82,37.472,35.418,39.054,39.04,31.061999999999998
37.93,37.672,35.368,38.943000000000005,38.811,31.045
38.018,37.857,35.326,38.842,38.579,31.03
38.083,38.025,35.29,38.747,38.346,31.018
38.129,38.174,35.262,38.656,38.114000000000004,31.008000000000003
38.161,38.304,35.242,38.562,37.884,31.003
38.189,38.414,35.23,38.461999999999996,37.657,31.002
38.216,38.501999999999995,35.226,38.354,37.433,31.005
38.24,38.569,35.231,38.236999999999995,37.214,31.015
38.258,38.615,35.244,38.108000000000004,37.0,31.035
38.268,38.639,35.264,37.97,36.791,31.066
38.264,38.643,35.29,37.821999999999996,36.586999999999996,31.112
38.243,38.629,35.32,37.666,36.388000000000005,31.177
38.204,38.598,35.355,37.504,36.193000000000005,31.266
38.144,38.552,35.391999999999996,37.338,36.003,31.386
38.064,38.493,35.433,37.171,35.818000000000005,31.541999999999998
37.966,38.424,35.475,37.005,35.637,31.741
37.852,38.346,35.519,36.843,35.46,31.99
37.724000000000004,38.26,35.563,36.685,35.29,32.294000000000004
37.584,38.169000000000004,35.607,36.533,35.126,32.657
37.436,38.074,35.648,36.385999999999996,34.97,33.08
37.284,37.977,35.685,36.247,34.824,33.561
37.13,37.878,35.718,36.115,34.69,34.096
36.977,37.779,35.746,35.99,34.569,34.678000000000004
36.827,37.68,35.766999999999996,35.873000000000005,34.463,35.297
36.681999999999995,37.583,35.781,35.765,34.373000000000005,35.941
36.543,37.486999999999995,35.788000000000004,35.665,34.3,36.597
36.413000000000004,37.393,35.787,35.575,34.245,37.253
36.289,37.3,35.778,35.495,34.208,37.897
36.174,37.209,35.76,35.425,34.191,38.519
36.066,37.119,35.734,35.365,34.193000000000005,39.109
35.965,37.031,35.701,35.314,34.215,39.661
35.87,36.944,35.661,35.272,34.256,40.166
35.781,36.857,35.615,35.238,34.314,40.619
35.696,36.77,35.563,35.213,34.389,41.015
35.614000000000004,36.684,35.508,35.198,34.477,41.352
35.535,36.598,35.45,35.191,34.578,41.63
35.458,36.512,35.39,35.192,34.689,41.85
35.385,36.427,35.329,35.203,34.808,42.013999999999996
35.316,36.344,35.268,35.222,34.933,42.126999999999995
35.25,36.263000000000005,35.205999999999996,35.25,35.062,42.192
35.189,36.184,35.145,35.286,35.195,42.215
35.133,36.107,35.083,35.330999999999996,35.332,42.199
35.082,36.032,35.021,35.383,35.478,42.148999999999994
35.036,35.961,34.958,35.441,35.629,42.068999999999996
34.994,35.893,34.894,35.501999999999995,35.782,41.961000000000006
34.957,35.83,34.829,35.565,35.931,41.82899999999999
34.924,35.771,34.763000000000005,35.628,36.073,41.677
34.896,35.719,34.696,35.69,36.201,41.506
34.873000000000005,35.672,34.629,35.75,36.311,41.318999999999996
34.856,35.63,34.564,35.806,36.400999999999996,41.118
34.844,35.595,34.5,35.856,36.468,40.905
34.838,35.565,34.439,35.900999999999996,36.513000000000005,40.681
34.838,35.539,34.38,35.937,36.534,40.449
34.845,35.519,34.323,35.965,36.535,40.21
34.858000000000004,35.504,34.266999999999996,35.985,36.515,39.963
34.876999999999995,35.495,34.213,35.995,36.478,39.71
34.902,35.49,34.161,35.997,36.426,39.451
34.931,35.49,34.111,35.989000000000004,36.361999999999995,39.186
34.964,35.495,34.064,35.972,36.288000000000004,38.916
35.0,35.505,34.019,35.946999999999996,36.205,38.641
35.037,35.52,33.976,35.914,36.116,38.363
35.074,35.539,33.934,35.873000000000005,36.021,38.082
35.11,35.562,33.894,35.823,35.923,37.801
35.145,35.586999999999996,33.856,35.766,35.82,37.521
35.177,35.615,33.82,35.701,35.715,37.241
35.207,35.643,33.785,35.63,35.607,36.963
35.233000000000004,35.671,33.751999999999995,35.553000000000004,35.497,36.686
35.254,35.698,33.72,35.471,35.385999999999996,36.411
35.271,35.722,33.69,35.387,35.275,36.138000000000005
35.283,35.744,33.661,35.301,35.165,35.869
35.29,35.764,33.633,35.215,35.055,35.605
35.292,35.78,33.607,35.128,34.946,35.349000000000004
35.289,35.792,33.583,35.042,34.839,35.103
35.281,35.799,33.561,34.955,34.732,34.87
35.268,35.802,33.54,34.866,34.626999999999995,34.65
35.249,35.799,33.52,34.777,34.525,34.445
35.223,35.79,33.501,34.689,34.425,34.255
35.19,35.778,33.481,34.601,34.329,34.082
35.150999999999996,35.77,33.46,34.513000000000005,34.236,33.927
35.106,35.768,33.438,34.426,34.147,33.792
35.056999999999995,35.77,33.416,34.339,34.061,33.676
35.003,35.773,33.395,34.253,33.979,33.582
34.946,35.775,33.375,34.167,33.9,33.508
34.887,35.77,33.356,34.082,33.825,33.455999999999996
34.827,35.756,33.341,33.999,33.753,33.424
34.766999999999996,35.731,33.33,33.918,33.684,33.412
34.707,35.692,33.321999999999996,33.838,33.618,33.42
34.646,35.639,33.317,33.765,33.556,33.448
34.586,35.573,33.314,33.705,33.498000000000005,33.495
34.525,35.497,33.313,33.663000000000004,33.441,33.561
34.464,35.411,33.312,33.635,33.387,33.646
34.404,35.317,33.31,33.618,33.335,33.748000000000005
34.344,35.217,33.306,33.607,33.285,33.868
34.285,35.113,33.301,33.597,33.238,34.001999999999995
34.228,35.008,33.293,33.584,33.192,34.15
34.172,34.904,33.283,33.563,33.148,34.309
34.118,34.803000000000004,33.271,33.533,33.107,34.476
34.067,34.707,33.255,33.491,33.066,34.65
34.018,34.615,33.239000000000004,33.439,33.028,34.827
33.97,34.529,33.22,33.378,32.991,35.004
33.922,34.45,33.2,33.308,32.955999999999996,35.178000000000004
33.874,34.379,33.179,33.233000000000004,32.923,35.346
33.825,34.315,33.156,33.154,32.891,35.503
33.775999999999996,34.257,33.133,33.076,32.861,35.647
33.727,34.205999999999996,33.111,32.999,32.833,35.777
33.679,34.16,33.089,32.926,32.806999999999995,35.891999999999996
33.631,34.119,33.071999999999996,32.859,32.784,35.991
33.584,34.08,33.058,32.798,32.764,36.075
33.538000000000004,34.044000000000004,33.048,32.744,32.745,36.141999999999996
33.493,34.01,33.042,32.696,32.729,36.193000000000005
33.451,33.978,33.039,32.654,32.715,36.228
33.411,33.948,33.038000000000004,32.618,32.702,36.246
33.374,33.919000000000004,33.04,32.59,32.691,36.246
33.339,33.891999999999996,33.045,32.568000000000005,32.68,36.23
33.305,33.866,33.053000000000004,32.553000000000004,32.67,36.196999999999996
33.273,33.841,33.067,32.544000000000004,32.658,36.149
33.244,33.816,33.088,32.539,32.646,36.086
33.217,33.793,33.119,32.538000000000004,32.631,36.01
33.193000000000005,33.769,33.163000000000004,32.538000000000004,32.615,35.922
33.171,33.746,33.224000000000004,32.538000000000004,32.596,35.821999999999996
33.150999999999996,33.723,33.305,32.539,32.574,35.713
33.132,33.7,33.412,32.541,32.548,35.595
33.113,33.678000000000004,33.545,32.543,32.521,35.47
33.094,33.657,33.708,32.543,32.492,35.336999999999996
33.075,33.639,33.9,32.543,32.461,35.2
33.055,33.623000000000005,34.12,32.541,32.431,35.059
33.035,33.609,34.366,32.539,32.4,34.915
33.014,33.598,34.635999999999996,32.536,32.372,34.769
32.993,33.586999999999996,34.926,32.533,32.346,34.623000000000005
32.972,33.577,35.232,32.529,32.324,34.478
32.951,33.567,35.55,32.525,32.308,34.333
32.931,33.558,35.874,32.52,32.299,34.191
32.911,33.548,36.2,32.512,32.3,34.051
32.89,33.539,36.524,32.501999999999995,32.316,33.916
32.868,33.529,36.842,32.49,32.349000000000004,33.784
32.845,33.52,37.149,32.477,32.403,33.657
32.821,33.51,37.444,32.461999999999996,32.485,33.535
32.797,33.498000000000005,37.723,32.446,32.596,33.417
32.772,33.485,37.984,32.428000000000004,32.742,33.305
32.748000000000005,33.469,38.226,32.41,32.924,33.196
32.726,33.45,38.446999999999996,32.391,33.145,33.091
32.705,33.429,38.647,32.372,33.403,32.989000000000004
32.688,33.407,38.823,32.353,33.698,32.888000000000005
32.674,33.384,38.973,32.335,34.025999999999996,32.79
32.665,33.361,39.098,32.317,34.383,32.694
32.663000000000004,33.336999999999996,39.196,32.301,34.765,32.602
32.669000000000004,33.315,39.266999999999996,32.286,35.168,32.515
32.686,33.293,39.312,32.273,35.585,32.434
32.716,33.273,39.330999999999996,32.262,36.013000000000005,32.358000000000004
32.763000000000005,33.254,39.326,32.253,36.445,32.288000000000004
32.829,33.236,39.298,32.244,36.876999999999995,32.223
32.917,33.22,39.249,32.236,37.302,32.163000000000004
33.03,33.205999999999996,39.181,32.228,37.717,32.106
33.171,33.195,39.097,32.222,38.118,32.051
33.34,33.19,38.997,32.22,38.5,31.999000000000002
33.54,33.191,38.885,32.222,38.859,31.948
33.775,33.201,38.762,32.229,39.192,31.9
34.054,33.221,38.63,32.245,39.495,31.855
34.376,33.254,38.49,32.269,39.765,31.811999999999998
34.735,33.301,38.346,32.306,40.0,31.771
35.118,33.364000000000004,38.198,32.358000000000004,40.198,31.732
35.514,33.446,38.049,32.427,40.358000000000004,31.694000000000003
35.912,33.549,37.900999999999996,32.516999999999996,40.48,31.658
36.3,33.673,37.755,32.63,40.565,31.624000000000002
36.668,33.821,37.611999999999995,32.77,40.614000000000004,31.592
37.009,33.99,37.473,32.939,40.626999999999995,31.563000000000002
37.316,34.181,37.34,33.141,40.604,31.535999999999998
37.584,34.391,37.211999999999996,33.376999999999995,40.547,31.511999999999997
37.813,34.62,37.091,33.648,40.457,31.489
38.001,34.863,36.975,33.955,40.338,31.467
38.150999999999996,35.118,36.864000000000004,34.295,40.192,31.445999999999998
38.265,35.382,36.757,34.665,40.023,31.426
38.346,35.649,36.652,35.061,39.836,31.408
38.398,35.916,36.55,35.477,39.635,31.393
38.424,36.181999999999995,36.448,35.906,39.423,31.381
38.427,36.443000000000005,36.348,36.341,39.204,31.372
38.413000000000004,36.696999999999996,36.247,36.775,38.981,31.366
38.383,36.942,36.146,37.203,38.757,31.361
38.342,37.176,36.044000000000004,37.621,38.534,31.355999999999998
38.292,37.399,35.943000000000005,38.021,38.314,31.351999999999997
38.236,37.609,35.841,38.397,38.097,31.348000000000003
38.175,37.804,35.742,38.741,37.883,31.344
38.111,37.984,35.645,39.048,37.674,31.34
38.045,38.146,35.552,39.313,37.469,31.336
37.976,38.29,35.464,39.535,37.268,31.331999999999997
37.906,38.416,35.383,39.71,37.07,31.326999999999998
37.834,38.524,35.309,39.842,36.876,31.320999999999998
37.76,38.613,35.242,39.931,36.684,31.316
37.684,38.684,35.185,39.98,36.493,31.31
37.604,38.736,35.135999999999996,39.993,36.305,31.305999999999997
37.522,38.771,35.097,39.974000000000004,36.119,31.304000000000002
37.437,38.789,35.068000000000005,39.927,35.937,31.304000000000002
37.351,38.79,35.049,39.858000000000004,35.758,31.307
37.264,38.775,35.04,39.769,35.585,31.314
37.176,38.745,35.041,39.664,35.418,31.326
37.086,38.7,35.052,39.546,35.257,31.342
36.995,38.641999999999996,35.071,39.419000000000004,35.105,31.366999999999997
36.903,38.573,35.099000000000004,39.287,34.964,31.401999999999997
36.811,38.494,35.133,39.150999999999996,34.834,31.453000000000003
36.719,38.406,35.172,39.013000000000005,34.717,31.522
36.626999999999995,38.31,35.216,38.874,34.614000000000004,31.615
36.536,38.208,35.260999999999996,38.736,34.527,31.738000000000003
36.446,38.102,35.306,38.598,34.455999999999996,31.898000000000003
36.358000000000004,37.998000000000005,35.35,38.461,34.402,32.1
36.271,37.9,35.393,38.325,34.367,32.353
36.185,37.806999999999995,35.431999999999995,38.19,34.351,32.66
36.098,37.719,35.469,38.056999999999995,34.354,33.025
36.01,37.634,35.501,37.926,34.376,33.451
35.921,37.55,35.53,37.796,34.417,33.936
35.830999999999996,37.467,35.555,37.668,34.476,34.475
35.741,37.382,35.578,37.543,34.552,35.063
35.654,37.295,35.597,37.42,34.641999999999996,35.69
35.569,37.204,35.611,37.298,34.745,36.343
35.486999999999995,37.11,35.62,37.179,34.858000000000004,37.008
35.411,37.013000000000005,35.625,37.06,34.977,37.671
35.341,36.914,35.625,36.944,35.101,38.321
35.279,36.813,35.62,36.829,35.225,38.946999999999996
35.225,36.711,35.61,36.714,35.349000000000004,39.539
35.179,36.608000000000004,35.595,36.598,35.469,40.09
35.14,36.505,35.575,36.482,35.583,40.596
35.109,36.404,35.549,36.364000000000004,35.69,41.051
35.084,36.304,35.52,36.246,35.788000000000004,41.45399999999999
35.067,36.207,35.488,36.128,35.876999999999995,41.803000000000004
35.056,36.115,35.452,36.008,35.955999999999996,42.097
35.051,36.029,35.413000000000004,35.89,36.024,42.336000000000006
35.051,35.95,35.37,35.773,36.08,42.523999999999994
35.056,35.88,35.323,35.659,36.123000000000005,42.661
35.065,35.817,35.271,35.548,36.154,42.751000000000005
35.078,35.763000000000005,35.216,35.441,36.171,42.798
35.094,35.715,35.156,35.341,36.175,42.803999999999995
35.113,35.675,35.093,35.247,36.167,42.773
35.134,35.641,35.025,35.161,36.147,42.708999999999996
35.158,35.614000000000004,34.954,35.083,36.115,42.61600000000001
35.184,35.593,34.88,35.014,36.071999999999996,42.495
35.211999999999996,35.579,34.805,34.954,36.019,42.351000000000006
35.241,35.571999999999996,34.728,34.906,35.959,42.18600000000001
35.271,35.57,34.650999999999996,34.87,35.891999999999996,42.003
35.3,35.573,34.575,34.846,35.82,41.803999999999995
35.327,35.582,34.5,34.834,35.742,41.592
35.351,35.594,34.428000000000004,34.835,35.661,41.369
35.371,35.609,34.357,34.846,35.577,41.136
35.387,35.628,34.29,34.869,35.49,40.894
35.398,35.649,34.226,34.902,35.4,40.645
35.404,35.672,34.165,34.945,35.308,40.39
35.405,35.696,34.106,34.998000000000005,35.215,40.13
35.399,35.72,34.051,35.06,35.119,39.866
35.387,35.745,33.998000000000005,35.13,35.022,39.599000000000004
35.369,35.769,33.948,35.207,34.924,39.329
35.344,35.792,33.899,35.288000000000004,34.824,39.056
35.313,35.813,33.853,35.372,34.723,38.782
35.277,35.833,33.81,35.459,34.622,38.507
35.236999999999995,35.848,33.77,35.545,34.521,38.232
35.194,35.86,33.732,35.628,34.421,37.959
35.146,35.867,33.698,35.707,34.32,37.687
35.095,35.87,33.665,35.779,34.22,37.418
35.042,35.867,33.635,35.843,34.122,37.152
34.986999999999995,35.86,33.605,35.899,34.027,36.889
34.93,35.847,33.577,35.945,33.934,36.63
34.87,35.83,33.551,35.981,33.844,36.375
34.808,35.808,33.525999999999996,36.007,33.759,36.126
34.745,35.781,33.503,36.021,33.678000000000004,35.885
34.681,35.748000000000005,33.481,36.025,33.602,35.650999999999996
34.615,35.711,33.461,36.016999999999996,33.532,35.428000000000004
34.549,35.669000000000004,33.443000000000005,35.998000000000005,33.466,35.215
34.483000000000004,35.621,33.425,35.967,33.406,35.014
34.417,35.569,33.407,35.927,33.35,34.826
34.352,35.512,33.391,35.878,33.298,34.654
34.289,35.45,33.375,35.82,33.248000000000005,34.498000000000005
34.228,35.385,33.361999999999995,35.755,33.2,34.361
34.168,35.317,33.35,35.681999999999995,33.153,34.245
34.11,35.248000000000005,33.34,35.603,33.107,34.150999999999996
34.051,35.179,33.330999999999996,35.518,33.062,34.080999999999996
33.992,35.111,33.323,35.429,33.018,34.033
33.933,35.044000000000004,33.315,35.336999999999996,32.973,34.007
33.874,34.979,33.306,35.243,32.929,34.004
33.815,34.914,33.296,35.148,32.887,34.022
33.758,34.85,33.285,35.052,32.848,34.062
33.702,34.787,33.274,34.955999999999996,32.811,34.123000000000005
33.648,34.725,33.262,34.861,32.777,34.205
33.597,34.664,33.25,34.768,32.747,34.306
33.547,34.605,33.236999999999995,34.676,32.721,34.426
33.501,34.548,33.224000000000004,34.588,32.699,34.562
33.458,34.492,33.211,34.501999999999995,32.68,34.711999999999996
33.416,34.438,33.198,34.419000000000004,32.663000000000004,34.871
33.376999999999995,34.387,33.185,34.336,32.649,35.038000000000004
33.34,34.336999999999996,33.172,34.255,32.635,35.208
33.306,34.289,33.159,34.174,32.623000000000005,35.376999999999995
33.274,34.244,33.147,34.095,32.611,35.544000000000004
33.245,34.201,33.135999999999996,34.018,32.6,35.704
33.217,34.159,33.124,33.943000000000005,32.588,35.855
33.191,34.12,33.111,33.871,32.574,35.996
33.166,34.082,33.098,33.802,32.558,36.125
33.143,34.046,33.083,33.736,32.54,36.242
33.12,34.012,33.068000000000005,33.672,32.519,36.345
33.097,33.978,33.052,33.613,32.496,36.434
33.075,33.946,33.036,33.556999999999995,32.471,36.51
33.051,33.915,33.02,33.505,32.445,36.571
33.028,33.885,33.004,33.457,32.417,36.618
33.004,33.857,32.988,33.411,32.39,36.650999999999996
32.982,33.829,32.973,33.367,32.363,36.67
32.961,33.804,32.961,33.323,32.336999999999996,36.675
32.942,33.781,32.955,33.281,32.312,36.666
32.925,33.759,32.958,33.241,32.288000000000004,36.644
32.909,33.74,32.97,33.204,32.265,36.607
32.894,33.723,32.994,33.171,32.245,36.556
32.878,33.708,33.034,33.141,32.227,36.49
32.863,33.694,33.091,33.114000000000004,32.213,36.408
32.847,33.681,33.168,33.091,32.204,36.312
32.829,33.669000000000004,33.268,33.071999999999996,32.202,36.203
32.81,33.657,33.393,33.056,32.211,36.084
32.787,33.645,33.546,33.042,32.233000000000004,35.955999999999996
32.762,33.633,33.725,33.031,32.272,35.821999999999996
32.738,33.621,33.931,33.023,32.333,35.681999999999995
32.714,33.609,34.161,33.015,32.42,35.538000000000004
32.694,33.596,34.414,33.01,32.539,35.39
32.677,33.583,34.687,33.005,32.695,35.238
32.665,33.571,34.976,33.001,32.891999999999996,35.084
32.66,33.558,35.278,32.998000000000005,33.132,34.928000000000004
32.662,33.546,35.586999999999996,32.996,33.416,34.77
32.675,33.534,35.898,32.993,33.743,34.611999999999995
32.701,33.522,36.208,32.989000000000004,34.11,34.455
32.742,33.509,36.510999999999996,32.985,34.512,34.3
32.802,33.494,36.805,32.98,34.943000000000005,34.148
32.883,33.477,37.088,32.973,35.398,33.999
32.989000000000004,33.459,37.355,32.964,35.871,33.854
33.122,33.439,37.606,32.955,36.356,33.713
33.285,33.416,37.838,32.945,36.845,33.577
33.479,33.394,38.051,32.934,37.333,33.446
33.703,33.371,38.244,32.922,37.813,33.321999999999996
33.957,33.348,38.416,32.909,38.279,33.205
34.238,33.325,38.568000000000005,32.895,38.727,33.095
34.542,33.302,38.699,32.878,39.150999999999996,32.993
34.863,33.28,38.81,32.861,39.548,32.898
35.198,33.258,38.9,32.842,39.913000000000004,32.811
35.538000000000004,33.238,38.969,32.821,40.243,32.731
35.879,33.219,39.018,32.8,40.534,32.657
36.215,33.201,39.046,32.777,40.785,32.589
36.541,33.187,39.056,32.755,40.993,32.525999999999996
36.852,33.175,39.046,32.734,41.158,32.467
37.145,33.168,39.019,32.714,41.281000000000006,32.412
37.416,33.165,38.974000000000004,32.696999999999996,41.361000000000004,32.359
37.665,33.169000000000004,38.914,32.681999999999995,41.4,32.309
37.889,33.181,38.84,32.671,41.398999999999994,32.26
38.086,33.205,38.753,32.664,41.361999999999995,32.211999999999996
38.256,33.243,38.656,32.661,41.293,32.165
38.398,33.296,38.548,32.664,41.193000000000005,32.12
38.512,33.367,38.431999999999995,32.673,41.068000000000005,32.077
38.599000000000004,33.458,38.309,32.69,40.919000000000004,32.036
38.66,33.57,38.181,32.717,40.751,31.996
38.696,33.707,38.049,32.757,40.566,31.959
38.711,33.868,37.916,32.811,40.369,31.923000000000002
38.705,34.053000000000004,37.783,32.884,40.16,31.888
38.681,34.26,37.649,32.979,39.943000000000005,31.855
38.641,34.488,37.518,33.098,39.719,31.824
38.586999999999996,34.733000000000004,37.389,33.244,39.493,31.795
38.521,34.993,37.262,33.421,39.264,31.768
38.445,35.263000000000005,37.14,33.629,39.035,31.741999999999997
38.361999999999995,35.54,37.02,33.869,38.806999999999995,31.718000000000004
38.272,35.82,36.905,34.141999999999996,38.580999999999996,31.694000000000003
38.176,36.1,36.794000000000004,34.445,38.358000000000004,31.671
38.075,36.376999999999995,36.686,34.775999999999996,38.141,31.649
37.971,36.646,36.580999999999996,35.13,37.929,31.628
37.864000000000004,36.904,36.479,35.501,37.724000000000004,31.608
37.756,37.150999999999996,36.381,35.884,37.525999999999996,31.589000000000002
37.648,37.384,36.285,36.272,37.334,31.572
37.54,37.601,36.193000000000005,36.659,37.148,31.555999999999997
37.434,37.802,36.103,37.039,36.968,31.541
37.330999999999996,37.985,36.016,37.404,36.793,31.526999999999997
37.231,38.150999999999996,35.931999999999995,37.751,36.623000000000005,31.515
37.133,38.298,35.85,38.073,36.459,31.505
37.038000000000004,38.425,35.771,38.366,36.3,31.496
36.944,38.533,35.696,38.628,36.148,31.489
36.852,38.621,35.626999999999995,38.855,36.001999999999995,31.483
36.762,38.689,35.564,39.048,35.865,31.476999999999997
36.675,38.736,35.507,39.205999999999996,35.736,31.473000000000003
36.588,38.765,35.459,39.33,35.618,31.468000000000004
36.5,38.774,35.418,39.421,35.510999999999996,31.462
36.412,38.765,35.385999999999996,39.481,35.417,31.456
36.321999999999996,38.738,35.363,39.510999999999996,35.334,31.45
36.232,38.696,35.348,39.514,35.265,31.443
36.139,38.64,35.342,39.494,35.209,31.436
36.046,38.571999999999996,35.344,39.452,35.167,31.430999999999997
35.952,38.494,35.354,39.393,35.141999999999996,31.429000000000002
35.859,38.408,35.372,39.318000000000005,35.132,31.430999999999997
35.766999999999996,38.317,35.397,39.23,35.139,31.44
35.68,38.221,35.426,39.132,35.169000000000004,31.459
35.599000000000004,38.123000000000005,35.461,39.024,35.23,31.494
35.525,38.023,35.5,38.909,35.32,31.551
35.457,37.924,35.542,38.787,35.434,31.638
35.396,37.824,35.586,38.659,35.565,31.761999999999997
35.341,37.726,35.631,38.525999999999996,35.704,31.932
35.294000000000004,37.631,35.678000000000004,38.388000000000005,35.845,32.155
35.254,37.54,35.723,38.247,35.98,32.438
35.222,37.454,35.769,38.104,36.104,32.784
35.199,37.371,35.814,37.961999999999996,36.213,33.196999999999996
35.184,37.292,35.859,37.819,36.305,33.676
35.177,37.215,35.900999999999996,37.678000000000004,36.38,34.219
35.179,37.14,35.94,37.538000000000004,36.438,34.817
35.196,37.066,35.973,37.4,36.48,35.464
35.232,36.99,36.0,37.262,36.508,36.146
35.286,36.913000000000004,36.02,37.124,36.523,36.852
35.353,36.834,36.031,36.986,36.528,37.565
35.429,36.751,36.036,36.849000000000004,36.525999999999996,38.273
35.509,36.665,36.032,36.711,36.516,38.961
35.588,36.577,36.022,36.574,36.503,39.618
35.661,36.486,36.003,36.434,36.486,40.233000000000004
35.723,36.394,35.977,36.294000000000004,36.466,40.798
35.772,36.302,35.944,36.153,36.443000000000005,41.308
35.806999999999995,36.211,35.904,36.012,36.418,41.758
35.826,36.123000000000005,35.856,35.873000000000005,36.389,42.147
35.832,36.038000000000004,35.804,35.736,36.357,42.473
35.824,35.959,35.746,35.603,36.323,42.738
35.804,35.885,35.684,35.474000000000004,36.284,42.946000000000005
35.775,35.818000000000005,35.617,35.35,36.241,43.099
35.738,35.758,35.546,35.231,36.192,43.205
35.696,35.705,35.473,35.119,36.137,43.266000000000005
35.648,35.659,35.398,35.014,36.075,43.288999999999994
35.597,35.62,35.321999999999996,34.917,36.004,43.276
35.545,35.589,35.245,34.828,35.925,43.233000000000004
35.491,35.566,35.169000000000004,34.747,35.836999999999996,43.161
35.438,35.55,35.093,34.676,35.743,43.062
35.387,35.542,35.016999999999996,34.615,35.643,42.94
35.338,35.539,34.943000000000005,34.565,35.54,42.795
35.292,35.542,34.872,34.528,35.433,42.629
35.25,35.549,34.804,34.504,35.324,42.445
35.211,35.56,34.738,34.493,35.215,42.243
35.173,35.575,34.675,34.497,35.105,42.026
35.135999999999996,35.594,34.616,34.514,34.997,41.795
35.099000000000004,35.615,34.562,34.543,34.889,41.552
35.069,35.637,34.513000000000005,34.583,34.784,41.298
35.055,35.661,34.467,34.633,34.681999999999995,41.036
35.058,35.686,34.423,34.69,34.585,40.766999999999996
35.074,35.711,34.382,34.755,34.492,40.493
35.097,35.736,34.343,34.825,34.403,40.215
35.119,35.76,34.304,34.900999999999996,34.319,39.935
35.131,35.784,34.265,34.979,34.239000000000004,39.653
35.128,35.805,34.226,35.059,34.164,39.372
35.106,35.824,34.186,35.139,34.092,39.092
35.06,35.838,34.146,35.216,34.023,38.815
34.993,35.847,34.106,35.29,33.957,38.541
34.903,35.851,34.065,35.359,33.893,38.271
34.796,35.85,34.025,35.423,33.830999999999996,38.005
34.673,35.842,33.984,35.481,33.771,37.743
34.54,35.829,33.944,35.531,33.714,37.484
34.400999999999996,35.811,33.905,35.575,33.658,37.23
34.26,35.787,33.868,35.61,33.605,36.98
34.119,35.757,33.834,35.638000000000005,33.554,36.734
33.984,35.721,33.803000000000004,35.659,33.506,36.493
33.857,35.68,33.775,35.673,33.461999999999996,36.258
33.74,35.634,33.75,35.68,33.42,36.032
33.635,35.583,33.727,35.679,33.382,35.814
33.543,35.529,33.705,35.67,33.348,35.609
33.465,35.472,33.686,35.652,33.316,35.416
33.4,35.41,33.668,35.625,33.286,35.236999999999995
33.347,35.344,33.650999999999996,35.59,33.257,35.073
33.304,35.274,33.637,35.547,33.228,34.926
33.27,35.201,33.625,35.498000000000005,33.199,34.798
33.243,35.126,33.616,35.443000000000005,33.168,34.689
33.221,35.051,33.608000000000004,35.382,33.135999999999996,34.6
33.203,34.977,33.601,35.314,33.103,34.531
33.188,34.904,33.595,35.241,33.07,34.483000000000004
33.178000000000004,34.834,33.59,35.163000000000004,33.038000000000004,34.455
33.17,34.766,33.586,35.080999999999996,33.006,34.446
33.166,34.701,33.582,34.996,32.975,34.455999999999996
33.161,34.639,33.578,34.908,32.946999999999996,34.485
33.156,34.579,33.573,34.82,32.923,34.532
33.149,34.519,33.568000000000005,34.73,32.902,34.598
33.139,34.461,33.56,34.64,32.884,34.681
33.126,34.404,33.55,34.55,32.868,34.781
33.111,34.349000000000004,33.538000000000004,34.461,32.853,34.895
33.093,34.294000000000004,33.525999999999996,34.373000000000005,32.839,35.024
33.074,34.242,33.512,34.287,32.825,35.165
33.054,34.191,33.496,34.203,32.811,35.317
33.034,34.141,33.479,34.12,32.795,35.477
33.013000000000005,34.093,33.461999999999996,34.04,32.778,35.641
32.991,34.048,33.443000000000005,33.961,32.757,35.804
32.968,34.006,33.423,33.883,32.734,35.961999999999996
32.944,33.966,33.404,33.806999999999995,32.707,36.114000000000004
32.919000000000004,33.928000000000004,33.384,33.733000000000004,32.678000000000004,36.255
32.894,33.891999999999996,33.367,33.66,32.646,36.385999999999996
32.869,33.858000000000004,33.353,33.591,32.613,36.503
32.846,33.826,33.343,33.524,32.579,36.606
32.825,33.796,33.34,33.461999999999996,32.545,36.693000000000005
32.808,33.769,33.345,33.403,32.516,36.764
32.793,33.744,33.36,33.349000000000004,32.492,36.819
32.779,33.723,33.387,33.3,32.477,36.857
32.765,33.705,33.43,33.255,32.473,36.876999999999995
32.751999999999995,33.69,33.49,33.214,32.482,36.88
32.74,33.678000000000004,33.571999999999996,33.178000000000004,32.509,36.864000000000004
32.729,33.668,33.677,33.145,32.556999999999995,36.828
32.722,33.66,33.808,33.114000000000004,32.63,36.774
32.719,33.652,33.964,33.085,32.732,36.703
32.723,33.644,34.149,33.058,32.867,36.615
32.735,33.635999999999996,34.361,33.031,33.037,36.514
32.759,33.626,34.598,33.007,33.245,36.400999999999996
32.796,33.615,34.857,32.984,33.492,36.279
32.851,33.604,35.135,32.964,33.778,36.148
32.924,33.592,35.428000000000004,32.945,34.099000000000004,36.01
33.02,33.579,35.731,32.928000000000004,34.454,35.865
33.14,33.566,36.041,32.91,34.838,35.715
33.287,33.552,36.352,32.891999999999996,35.246,35.56
33.464,33.536,36.661,32.874,35.675,35.403
33.672,33.52,36.965,32.856,36.12,35.245
33.909,33.501999999999995,37.26,32.84,36.576,35.088
34.175,33.484,37.544000000000004,32.824,37.038000000000004,34.933
34.466,33.466,37.813,32.811,37.503,34.782
34.778,33.45,38.066,32.799,37.965,34.634
35.107,33.435,38.3,32.788000000000004,38.419000000000004,34.49
35.446,33.422,38.515,32.778,38.861,34.348
35.789,33.409,38.709,32.768,39.284,34.21
36.132,33.397,38.881,32.758,39.684,34.075
36.468,33.385999999999996,39.03,32.747,40.056,33.945
36.792,33.375,39.157,32.736999999999995,40.393,33.82
37.099000000000004,33.365,39.262,32.727,40.691,33.699
37.384,33.353,39.344,32.717,40.946999999999996,33.583
37.643,33.34,39.403,32.708,41.157,33.469
37.873000000000005,33.325,39.439,32.699,41.32,33.358000000000004
38.073,33.309,39.454,32.69,41.437,33.25
38.242,33.292,39.446999999999996,32.681999999999995,41.50899999999999,33.143
38.38,33.274,39.419000000000004,32.676,41.538000000000004,33.04
38.488,33.254,39.373000000000005,32.67,41.525,32.94
38.568000000000005,33.233000000000004,39.31,32.666,41.474,32.843
38.622,33.211,39.232,32.662,41.388999999999996,32.751
38.652,33.188,39.139,32.658,41.273,32.663000000000004
38.66,33.165,39.033,32.652,41.131,32.579
38.65,33.141999999999996,38.917,32.644,40.966,32.499
38.623000000000005,33.12,38.791,32.634,40.784,32.422
38.582,33.101,38.659,32.623000000000005,40.586,32.349000000000004
38.528,33.084,38.524,32.613,40.376999999999995,32.279
38.461999999999996,33.071999999999996,38.387,32.605,40.161,32.214
38.387,33.066,38.25,32.601,39.939,32.154
38.304,33.066,38.117,32.603,39.714,32.101
38.216,33.073,37.986999999999995,32.611999999999995,39.488,32.053000000000004
38.123000000000005,33.092,37.861999999999995,32.63,39.264,32.01
38.025,33.123000000000005,37.742,32.659,39.042,31.971
37.923,33.17,37.625,32.703,38.826,31.936999999999998
37.818000000000005,33.235,37.512,32.765,38.616,31.906
37.711,33.32,37.403,32.85,38.413000000000004,31.879
37.601,33.427,37.297,32.961999999999996,38.217,31.855
37.49,33.558,37.192,33.105,38.025,31.833000000000002
37.378,33.713,37.088,33.282,37.836,31.813000000000002
37.266,33.891999999999996,36.986,33.496,37.648,31.794
37.155,34.096,36.885,33.748000000000005,37.461999999999996,31.778000000000002
37.045,34.321,36.785,34.038000000000004,37.279,31.763
36.937,34.566,36.686,34.367,37.1,31.749000000000002
36.830999999999996,34.827,36.588,34.73,36.925,31.736
36.727,35.102,36.493,35.123000000000005,36.756,31.725
36.625,35.393,36.4,35.541,36.595,31.715999999999998
36.524,35.696999999999996,36.309,35.976,36.443000000000005,31.71
36.425,36.009,36.221,36.423,36.3,31.705
36.327,36.321999999999996,36.135999999999996,36.873000000000005,36.166,31.701
36.228,36.629,36.054,37.318000000000005,36.041,31.698
36.126999999999995,36.923,35.978,37.751999999999995,35.927,31.695
36.027,37.2,35.906,38.167,35.823,31.689
35.929,37.455,35.839,38.556999999999995,35.731,31.683000000000003
35.834,37.685,35.78,38.917,35.650999999999996,31.673000000000002
35.743,37.889,35.729,39.243,35.583,31.662
35.657,38.065,35.687,39.532,35.525999999999996,31.647
35.574,38.216,35.655,39.783,35.483000000000004,31.63
35.496,38.342,35.633,39.994,35.451,31.611
35.424,38.445,35.62,40.166,35.431999999999995,31.59
35.359,38.527,35.615,40.3,35.425,31.568
35.301,38.588,35.619,40.4,35.43,31.546
35.251,38.632,35.629,40.467,35.446999999999996,31.523000000000003
35.209,38.659,35.647,40.506,35.475,31.5
35.175,38.672,35.67,40.52,35.513000000000005,31.476999999999997
35.149,38.671,35.699,40.51,35.561,31.455
35.132,38.657,35.732,40.48,35.617,31.435
35.121,38.63,35.766999999999996,40.431999999999995,35.681999999999995,31.416999999999998
35.117,38.593,35.805,40.367,35.754,31.404
35.119,38.546,35.843,40.289,35.829,31.395
35.125,38.49,35.879,40.198,35.908,31.394000000000002
35.137,38.427,35.915,40.096,35.986999999999995,31.401999999999997
35.155,38.357,35.949,39.986,36.067,31.424
35.177,38.281,35.981,39.868,36.146,31.462
35.203,38.2,36.010999999999996,39.745,36.222,31.521
35.232,38.114000000000004,36.037,39.619,36.294000000000004,31.608
35.265,38.025,36.059,39.489000000000004,36.36,31.729
35.3,37.933,36.076,39.358000000000004,36.42,31.89
35.336999999999996,37.84,36.088,39.223,36.472,32.099000000000004
35.374,37.745,36.095,39.086999999999996,36.515,32.361999999999995
35.411,37.65,36.097,38.949,36.55,32.684
35.449,37.556,36.094,38.812,36.576,33.067
35.486,37.461,36.085,38.674,36.592,33.513000000000005
35.522,37.367,36.069,38.537,36.597,34.019
35.556,37.274,36.047,38.400999999999996,36.592,34.579
35.585,37.181999999999995,36.019,38.266,36.578,35.184
35.61,37.091,35.986,38.133,36.556,35.821999999999996
35.626999999999995,37.001,35.948,38.001,36.525,36.483000000000004
35.638000000000005,36.912,35.904,37.87,36.485,37.153
35.641,36.825,35.857,37.742,36.436,37.821
35.637,36.739000000000004,35.804,37.615,36.379,38.477
35.625,36.654,35.748000000000005,37.489000000000004,36.315,39.109
35.605,36.569,35.689,37.364000000000004,36.244,39.711
35.578,36.484,35.628,37.239000000000004,36.167,40.273
35.544000000000004,36.400999999999996,35.566,37.115,36.086,40.792
35.505,36.319,35.504,36.992,36.0,41.263999999999996
35.459,36.24,35.441,36.872,35.91,41.684
35.408,36.163000000000004,35.378,36.755,35.817,42.051
35.351,36.088,35.315,36.641999999999996,35.719,42.365
35.291,36.016,35.251,36.533,35.618,42.626999999999995
35.228,35.946999999999996,35.187,36.429,35.514,42.836000000000006
35.162,35.88,35.123000000000005,36.33,35.403,42.995
35.094,35.816,35.06,36.235,35.287,43.106
35.027,35.755,34.997,36.145,35.167,43.17100000000001
34.96,35.699,34.935,36.06,35.046,43.192
34.893,35.649,34.872,35.981,34.927,43.17100000000001
34.826,35.606,34.81,35.909,34.812,43.111000000000004
34.76,35.569,34.749,35.843,34.704,43.016000000000005
34.695,35.54,34.691,35.785,34.602,42.89
34.631,35.519,34.634,35.735,34.509,42.736000000000004
34.568000000000005,35.507,34.579,35.693000000000005,34.425,42.559
34.507,35.504,34.525999999999996,35.66,34.349000000000004,42.361000000000004
34.446999999999996,35.508,34.476,35.637,34.281,42.146
34.387,35.52,34.429,35.623000000000005,34.219,41.916000000000004
34.328,35.537,34.385,35.618,34.163000000000004,41.676
34.268,35.558,34.344,35.623000000000005,34.111999999999995,41.425
34.208,35.580999999999996,34.306,35.637,34.065,41.167
34.149,35.606,34.27,35.659,34.022,40.900999999999996
34.09,35.632,34.238,35.689,33.98,40.63
34.032,35.658,34.21,35.726,33.938,40.353
33.975,35.684,34.185,35.771,33.897,40.071
33.919000000000004,35.71,34.163000000000004,35.821,33.854,39.788000000000004
33.864000000000004,35.736,34.143,35.875,33.809,39.504
33.81,35.759,34.122,35.931,33.762,39.221
33.756,35.779,34.102,35.989000000000004,33.711999999999996,38.943000000000005
33.704,35.795,34.082,36.047,33.662,38.669000000000004
33.650999999999996,35.806999999999995,34.06,36.102,33.611,38.400999999999996
33.599000000000004,35.815,34.038000000000004,36.153,33.561,38.138000000000005
33.549,35.818000000000005,34.014,36.199,33.513000000000005,37.879
33.501,35.816,33.989000000000004,36.238,33.466,37.625
33.457,35.809,33.963,36.271,33.422,37.374
33.415,35.795,33.937,36.296,33.381,37.126
33.376,35.775999999999996,33.911,36.312,33.342,36.882
33.339,35.751,33.885999999999996,36.321,33.306,36.641999999999996
33.304,35.721,33.861999999999995,36.321999999999996,33.274,36.406
33.27,35.687,33.839,36.314,33.244,36.174
33.238,35.648,33.818000000000005,36.298,33.218,35.948
33.209,35.607,33.798,36.275,33.195,35.728
33.181,35.562,33.779,36.244,33.174,35.516999999999996
33.158,35.514,33.76,36.205,33.154,35.314
33.137,35.464,33.742,36.159,33.135,35.123000000000005
33.121,35.412,33.724000000000004,36.107,33.116,34.944
33.108000000000004,35.359,33.707,36.05,33.098,34.78
33.097,35.303000000000004,33.689,35.986999999999995,33.08,34.634
33.086999999999996,35.246,33.671,35.92,33.062,34.505
33.076,35.189,33.652,35.849000000000004,33.042,34.398
33.062,35.131,33.632,35.773,33.021,34.312
33.046,35.071999999999996,33.613,35.693000000000005,33.0,34.249
33.028,35.012,33.593,35.609,32.979,34.209
33.009,34.951,33.574,35.52,32.958,34.192
32.988,34.89,33.556,35.429,32.937,34.198
32.965,34.828,33.536,35.335,32.916,34.225
32.94,34.766,33.514,35.239000000000004,32.893,34.272
32.915,34.704,33.491,35.141999999999996,32.869,34.338
32.888000000000005,34.641999999999996,33.466,35.043,32.843,34.423
32.861,34.58,33.441,34.944,32.816,34.524
32.834,34.516999999999996,33.416,34.845,32.787,34.64
32.808,34.455,33.393,34.746,32.759,34.77
32.785,34.394,33.372,34.647,32.731,34.913000000000004
32.763000000000005,34.335,33.354,34.549,32.705999999999996,35.067
32.744,34.277,33.342,34.451,32.686,35.229
32.729,34.222,33.335,34.357,32.672,35.396
32.72,34.17,33.335,34.265,32.67,35.564
32.719,34.121,33.344,34.177,32.681999999999995,35.73
32.725,34.075,33.364000000000004,34.094,32.713,35.89
32.74,34.032,33.397,34.015,32.769,36.04
32.766,33.99,33.446,33.941,32.855,36.178000000000004
32.804,33.95,33.513000000000005,33.871,32.976,36.301
32.858000000000004,33.91,33.602,33.805,33.135,36.408
32.931999999999995,33.872,33.713,33.743,33.333,36.496
33.028,33.835,33.85,33.686,33.571,36.564
33.15,33.8,34.013000000000005,33.632,33.849000000000004,36.613
33.299,33.768,34.202,33.582,34.162,36.641999999999996
33.479,33.739000000000004,34.418,33.534,34.507,36.652
33.689,33.711999999999996,34.657,33.49,34.881,36.643
33.929,33.689,34.919000000000004,33.448,35.278,36.618
34.196999999999996,33.67,35.201,33.409,35.693000000000005,36.576
34.488,33.653,35.498000000000005,33.372,36.123000000000005,36.521
34.8,33.638000000000005,35.806999999999995,33.336,36.563,36.453
35.126,33.625,36.124,33.303000000000004,37.009,36.373000000000005
35.461999999999996,33.613,36.446,33.271,37.455999999999996,36.284
35.802,33.602,36.769,33.24,37.899,36.186
36.138000000000005,33.591,37.089,33.21,38.334,36.08
36.467,33.580999999999996,37.402,33.181,38.755,35.967
36.781,33.571999999999996,37.705999999999996,33.150999999999996,39.157,35.849000000000004
37.076,33.562,37.998000000000005,33.123000000000005,39.534,35.725
37.35,33.552,38.273,33.096,39.881,35.598
37.598,33.542,38.529,33.07,40.194,35.467
37.819,33.533,38.764,33.047,40.472,35.333
38.012,33.525,38.974000000000004,33.023,40.709,35.196
38.174,33.516,39.159,33.001,40.906,35.056999999999995
38.308,33.508,39.316,32.979,41.06,34.916
38.413000000000004,33.5,39.446,32.958,41.17100000000001,34.774
38.49,33.491,39.55,32.937,41.239,34.631
38.543,33.482,39.626999999999995,32.919000000000004,41.268,34.488
38.573,33.472,39.68,32.900999999999996,41.25899999999999,34.346
38.583,33.461,39.709,32.885,41.215,34.204
38.574,33.45,39.717,32.871,41.141000000000005,34.064
38.549,33.44,39.704,32.859,41.038999999999994,33.926
38.509,33.43,39.671,32.849000000000004,40.913000000000004,33.789
38.455999999999996,33.419000000000004,39.621,32.84,40.766,33.655
38.391999999999996,33.408,39.555,32.830999999999996,40.602,33.523
38.32,33.396,39.476,32.823,40.423,33.394
38.239000000000004,33.382,39.385,32.813,40.231,33.269
38.153,33.365,39.286,32.803000000000004,40.028,33.149
38.061,33.345,39.179,32.79,39.819,33.034
37.965,33.321999999999996,39.065,32.775999999999996,39.605,32.925
37.868,33.297,38.946999999999996,32.76,39.389,32.82
37.768,33.271,38.823,32.742,39.173,32.72
37.667,33.243,38.696,32.723,38.959,32.626
37.565,33.215,38.565,32.702,38.749,32.538000000000004
37.461999999999996,33.186,38.433,32.68,38.545,32.455
37.361,33.159,38.3,32.657,38.346,32.378
37.26,33.132,38.168,32.635999999999996,38.153,32.306999999999995
37.16,33.106,38.039,32.616,37.967,32.241
37.062,33.08,37.914,32.6,37.787,32.181
36.964,33.055,37.792,32.588,37.615,32.126
36.866,33.032,37.674,32.582,37.449,32.077
36.768,33.012,37.561,32.586,37.289,32.032
36.668,32.997,37.452,32.601,37.133,31.99
36.568000000000005,32.986999999999995,37.347,32.63,36.981,31.95
36.467,32.983000000000004,37.244,32.674,36.834,31.914
36.366,32.989000000000004,37.145,32.735,36.692,31.88
36.266,33.004,37.048,32.817,36.553000000000004,31.85
36.168,33.032,36.953,32.919000000000004,36.419000000000004,31.822
36.071999999999996,33.074,36.859,33.045,36.289,31.796
35.978,33.133,36.765,33.198,36.166,31.771
35.885999999999996,33.21,36.671,33.382,36.05,31.748
35.798,33.309,36.578,33.6,35.941,31.724
35.713,33.43,36.486,33.853,35.84,31.701999999999998
35.633,33.576,36.396,34.143,35.747,31.680999999999997
35.556999999999995,33.746,36.308,34.469,35.665,31.660999999999998
35.484,33.94,36.223,34.828,35.594,31.64
35.418,34.157,36.143,35.216,35.534,31.61
35.358000000000004,34.395,36.068000000000005,35.628,35.486999999999995,31.569000000000003
35.306,34.652,36.0,36.059,35.452,31.519000000000002
35.262,34.927,35.94,36.501999999999995,35.431,31.463
35.226,35.215,35.889,36.949,35.423,31.406999999999996
35.199,35.512,35.847,37.393,35.431,31.353
35.18,35.813,35.814,37.824,35.453,31.307
35.17,36.111999999999995,35.79,38.238,35.489000000000004,31.271
35.168,36.405,35.775,38.628,35.538000000000004,31.247
35.172,36.686,35.77,38.99,35.599000000000004,31.235
35.184,36.954,35.773,39.32,35.67,31.234
35.2,37.203,35.783,39.617,35.748000000000005,31.241999999999997
35.221,37.431,35.8,39.876999999999995,35.833,31.256999999999998
35.248000000000005,37.637,35.821,40.1,35.921,31.279
35.279,37.82,35.848,40.286,36.010999999999996,31.305
35.313,37.978,35.876999999999995,40.436,36.101,31.333000000000002
35.35,38.114000000000004,35.909,40.551,36.189,31.363000000000003
35.385999999999996,38.226,35.942,40.633,36.274,31.391
35.423,38.317,35.976,40.683,36.354,31.416999999999998
35.457,38.388000000000005,36.010999999999996,40.705,36.429,31.439
35.49,38.441,36.046,40.703,36.496,31.458000000000002
35.521,38.478,36.079,40.677,36.554,31.471999999999998
35.549,38.498000000000005,36.109,40.633,36.601,31.482
35.575,38.505,36.137,40.571,36.637,31.489
35.597,38.497,36.162,40.495,36.662,31.494
35.615,38.477,36.183,40.407,36.675,31.497
35.631,38.445,36.199,40.309,36.677,31.498
35.641,38.402,36.209,40.203,36.669000000000004,31.498
35.646,38.349000000000004,36.211999999999996,40.09,36.65,31.499000000000002
35.646,38.287,36.209,39.971,36.621,31.505
35.64,38.218,36.198,39.849000000000004,36.582,31.517
35.63,38.141,36.181,39.723,36.533,31.541999999999998
35.616,38.058,36.157,39.594,36.476,31.585
35.598,37.97,36.126999999999995,39.465,36.412,31.651999999999997
35.577,37.876999999999995,36.091,39.335,36.341,31.748
35.551,37.779,36.049,39.205999999999996,36.263000000000005,31.881999999999998
35.52,37.678000000000004,36.001,39.077,36.178000000000004,32.061
35.483000000000004,37.576,35.949,38.95,36.088,32.291
35.441,37.473,35.891999999999996,38.825,35.994,32.577
35.393,37.371,35.832,38.701,35.895,32.922
35.339,37.269,35.769,38.578,35.794000000000004,33.329
35.281,37.17,35.704,38.459,35.69,33.796
35.22,37.071999999999996,35.635999999999996,38.341,35.585,34.319
35.156,36.977,35.568000000000005,38.226,35.478,34.893
35.092,36.885,35.498000000000005,38.113,35.372,35.507
35.025999999999996,36.796,35.429,38.0,35.265,36.150999999999996
34.959,36.71,35.363,37.888000000000005,35.159,36.813
34.891999999999996,36.625,35.298,37.773,35.054,37.478
34.824,36.542,35.236999999999995,37.655,34.949,38.134
34.756,36.46,35.178000000000004,37.532,34.847,38.769
34.689,36.378,35.121,37.405,34.747,39.372
34.623000000000005,36.296,35.066,37.275999999999996,34.65,39.935
34.558,36.215,35.010999999999996,37.148,34.556,40.45
34.495,36.135,34.955,37.02,34.466,40.913000000000004
34.431999999999995,36.055,34.9,36.896,34.38,41.32
34.37,35.978,34.844,36.777,34.298,41.67
34.31,35.902,34.786,36.663000000000004,34.22,41.961999999999996
34.25,35.829,34.727,36.556,34.146,42.199
34.193000000000005,35.759,34.667,36.455,34.076,42.382
34.138000000000005,35.693000000000005,34.607,36.361999999999995,34.010999999999996,42.515
34.086,35.632,34.548,36.278,33.951,42.601000000000006
34.036,35.577,34.491,36.203,33.896,42.646
33.989000000000004,35.527,34.438,36.135999999999996,33.847,42.652
33.945,35.484,34.389,36.079,33.803000000000004,42.622
33.903,35.446999999999996,34.343,36.03,33.765,42.562
33.861999999999995,35.418,34.302,35.99,33.731,42.473
33.823,35.396,34.265,35.957,33.7,42.358999999999995
33.783,35.379,34.232,35.931999999999995,33.672,42.223
33.744,35.368,34.202,35.916,33.644,42.066
33.705999999999996,35.363,34.174,35.908,33.616,41.891999999999996
33.668,35.361999999999995,34.148,35.907,33.588,41.702
33.632,35.366,34.122,35.913000000000004,33.559,41.498000000000005
33.596,35.375,34.097,35.926,33.529,41.283
33.562,35.39,34.071,35.945,33.498000000000005,41.056999999999995
33.529,35.409,34.046,35.97,33.464,40.821
33.497,35.433,34.02,36.001999999999995,33.429,40.578
33.466,35.46,33.995,36.04,33.391,40.329
33.436,35.489000000000004,33.97,36.082,33.352,40.073
33.406,35.52,33.946,36.129,33.311,39.814
33.378,35.553000000000004,33.922,36.178000000000004,33.271,39.551
33.35,35.586,33.900999999999996,36.227,33.231,39.285
33.324,35.618,33.881,36.275999999999996,33.193000000000005,39.018
33.298,35.648,33.864000000000004,36.324,33.157,38.751999999999995
33.273,35.676,33.847,36.37,33.125,38.486
33.251,35.699,33.832,36.411,33.095,38.221
33.23,35.718,33.819,36.448,33.068000000000005,37.959
33.21,35.731,33.806,36.477,33.044000000000004,37.699
33.192,35.738,33.795,36.499,33.021,37.443000000000005
33.174,35.736999999999995,33.784,36.512,33.0,37.188
33.158,35.731,33.775,36.516,32.981,36.937
33.144,35.717,33.766,36.510999999999996,32.961,36.688
33.131,35.698,33.755,36.497,32.942,36.442
33.119,35.673,33.743,36.474000000000004,32.921,36.199
33.107,35.644,33.728,36.442,32.9,35.961999999999996
33.095,35.61,33.711,36.4,32.878,35.733000000000004
33.080999999999996,35.571999999999996,33.692,36.351,32.854,35.513000000000005
33.065,35.531,33.67,36.293,32.829,35.305
33.047,35.486999999999995,33.646,36.228,32.803000000000004,35.111
33.028,35.442,33.621,36.158,32.777,34.931
33.01,35.395,33.593,36.080999999999996,32.75,34.766999999999996
32.991,35.346,33.564,35.997,32.724000000000004,34.62
32.974000000000004,35.295,33.532,35.909,32.698,34.493
32.958,35.241,33.498000000000005,35.816,32.675,34.385
32.946,35.185,33.465,35.721,32.655,34.301
32.939,35.126999999999995,33.433,35.624,32.641999999999996,34.239000000000004
32.937,35.067,33.404,35.525999999999996,32.635999999999996,34.202
32.944,35.004,33.378,35.427,32.641,34.188
32.961,34.94,33.357,35.328,32.66,34.196999999999996
32.991,34.875,33.341,35.23,32.696,34.228
33.04,34.81,33.333,35.133,32.754,34.28
33.11,34.746,33.332,35.038000000000004,32.836999999999996,34.352
33.205999999999996,34.681,33.341,34.945,32.951,34.442
33.329,34.618,33.359,34.854,33.099000000000004,34.553000000000004
33.482,34.555,33.39,34.766,33.285,34.687
33.665,34.494,33.436,34.68,33.509,34.846
33.878,34.435,33.5,34.596,33.77,35.028
34.12,34.376999999999995,33.582,34.513000000000005,34.067,35.227
34.39,34.323,33.687,34.431999999999995,34.395,35.438
34.683,34.271,33.815,34.353,34.744,35.652
