Trial 1:0back,Trial 2:2back,Trial 3:3back,Trial 4:2back,Trial 5:3back,Trial 6:0back
34.993,37.323,35.062,33.755,35.395,33.946
35.39,37.247,35.03,33.687,35.399,33.925
35.805,37.174,34.999,33.62,35.4,33.906
36.232,37.104,34.968,33.555,35.4,33.888000000000005
36.664,37.037,34.938,33.49,35.398,33.871
37.097,36.974000000000004,34.91,33.426,35.395,33.856
37.525,36.915,34.884,33.363,35.39,33.841
37.944,36.859,34.86,33.302,35.384,33.828
38.348,36.806999999999995,34.836999999999996,33.242,35.376,33.815
38.735,36.76,34.816,33.185,35.367,33.804
39.102,36.717,34.796,33.128,35.356,33.793
39.446,36.68,34.777,33.074,35.345,33.783
39.764,36.647,34.76,33.021,35.333,33.772
40.055,36.619,34.745,32.97,35.32,33.760999999999996
40.319,36.596,34.733000000000004,32.921,35.306,33.75
40.555,36.578,34.726,32.874,35.291,33.739000000000004
40.763000000000005,36.563,34.726,32.83,35.275,33.727
40.943000000000005,36.553000000000004,34.736999999999995,32.79,35.259,33.716
41.096000000000004,36.546,34.76,32.755,35.243,33.705
41.224,36.543,34.798,32.725,35.225,33.695
41.327,36.544000000000004,34.852,32.701,35.207,33.687
41.406000000000006,36.547,34.925,32.687,35.188,33.681
41.461999999999996,36.554,35.018,32.684,35.169000000000004,33.677
41.496,36.563,35.131,32.696,35.15,33.677
41.51,36.574,35.264,32.724000000000004,35.13,33.681999999999995
41.504,36.586,35.416,32.773,35.111,33.694
41.481,36.598,35.585,32.845,35.091,33.713
41.441,36.611,35.77,32.942,35.071,33.743
41.386,36.622,35.967,33.066,35.051,33.784
41.317,36.632,36.173,33.22,35.03,33.839
41.235,36.64,36.385999999999996,33.403,35.008,33.909
41.141999999999996,36.646,36.601,33.615,34.986,33.995
41.038999999999994,36.649,36.815,33.855,34.961999999999996,34.099000000000004
40.927,36.648,37.024,34.119,34.938,34.219
40.806999999999995,36.643,37.224000000000004,34.406,34.913000000000004,34.356
40.681,36.634,37.414,34.711999999999996,34.888000000000005,34.508
40.549,36.621,37.59,35.033,34.864000000000004,34.675
40.413000000000004,36.604,37.751999999999995,35.367,34.84,34.854
40.274,36.582,37.896,35.709,34.816,35.043
40.134,36.555,38.024,36.055,34.792,35.24
39.992,36.523,38.133,36.400999999999996,34.768,35.443000000000005
39.85,36.488,38.224000000000004,36.743,34.743,35.648
39.708,36.449,38.296,37.077,34.717,35.853
39.566,36.407,38.351,37.399,34.691,36.056
39.426,36.363,38.388000000000005,37.705,34.665,36.253
39.286,36.318000000000005,38.41,37.992,34.638000000000005,36.443000000000005
39.147,36.271,38.417,38.256,34.61,36.623000000000005
39.009,36.224000000000004,38.411,38.495,34.582,36.792
38.872,36.176,38.394,38.707,34.554,36.948
38.736,36.126,38.366,38.891,34.525999999999996,37.089
38.6,36.076,38.33,39.047,34.498000000000005,37.216
38.463,36.025,38.287,39.175,34.472,37.328
38.327,35.973,38.238,39.277,34.446,37.424
38.19,35.92,38.184,39.353,34.421,37.505
38.053000000000004,35.867,38.126999999999995,39.405,34.397,37.571
37.917,35.812,38.067,39.434,34.374,37.624
37.782,35.758,38.004,39.442,34.351,37.662
37.649,35.702,37.94,39.431,34.328,37.687
37.52,35.647,37.874,39.402,34.306999999999995,37.7
37.396,35.591,37.806999999999995,39.358000000000004,34.288000000000004,37.701
37.277,35.535,37.739000000000004,39.3,34.272,37.692
37.164,35.479,37.669000000000004,39.23,34.263000000000005,37.673
37.059,35.422,37.598,39.15,34.262,37.646
36.961999999999996,35.365,37.525999999999996,39.062,34.27,37.611
36.873000000000005,35.309,37.453,38.967,34.292,37.571
36.793,35.251,37.38,38.867,34.327,37.527
36.722,35.194,37.308,38.762,34.378,37.479
36.661,35.135,37.238,38.653,34.446,37.428000000000004
36.608000000000004,35.076,37.17,38.542,34.531,37.373000000000005
36.563,35.016,37.105,38.43,34.634,37.316
36.525999999999996,34.957,37.043,38.316,34.754,37.256
36.497,34.897,36.985,38.203,34.89,37.196
36.475,34.839,36.93,38.089,35.04,37.135
36.46,34.781,36.878,37.977,35.203,37.075
36.45,34.724000000000004,36.83,37.865,35.376,37.015
36.445,34.67,36.784,37.753,35.556999999999995,36.957
36.443000000000005,34.617,36.742,37.643,35.744,36.900999999999996
36.444,34.566,36.702,37.534,35.933,36.848
36.446999999999996,34.516999999999996,36.664,37.425,36.123000000000005,36.796
36.452,34.47,36.628,37.317,36.312,36.747
36.458,34.425,36.592,37.21,36.497,36.7
36.464,34.381,36.556,37.104,36.677,36.655
36.471,34.338,36.52,37.0,36.849000000000004,36.611999999999995
36.476,34.296,36.484,36.897,37.012,36.569
36.479,34.255,36.446999999999996,36.797,37.164,36.528
36.481,34.215,36.41,36.699,37.304,36.486999999999995
36.48,34.174,36.371,36.604,37.431,36.446
36.476,34.133,36.332,36.51,37.544000000000004,36.405
36.468,34.092,36.291,36.419000000000004,37.644,36.363
36.457,34.049,36.25,36.329,37.73,36.321999999999996
36.442,34.005,36.208,36.241,37.803000000000004,36.281
36.421,33.96,36.166,36.154,37.863,36.241
36.395,33.914,36.125,36.068000000000005,37.91,36.202
36.365,33.866,36.084,35.985,37.945,36.166
36.329,33.817,36.046,35.904,37.968,36.132
36.289,33.766,36.010999999999996,35.826,37.98,36.101
36.244,33.715,35.979,35.751,37.981,36.071999999999996
36.194,33.663000000000004,35.951,35.681,37.972,36.044000000000004
36.139,33.611999999999995,35.928000000000004,35.615,37.954,36.018
36.080999999999996,33.56,35.91,35.555,37.928000000000004,35.993
36.02,33.51,35.898,35.501,37.895,35.969
35.957,33.46,35.893,35.454,37.856,35.946999999999996
35.891,33.412,35.895,35.414,37.813,35.926
35.823,33.367,35.904,35.381,37.765,35.908
35.754,33.324,35.919000000000004,35.356,37.715,35.891999999999996
35.684,33.286,35.941,35.336999999999996,37.662,35.88
35.613,33.253,35.969,35.325,37.608000000000004,35.872
35.541,33.227,36.001,35.318000000000005,37.552,35.868
35.469,33.211,36.037,35.314,37.496,35.869
35.396,33.207,36.075,35.314,37.439,35.874
35.323,33.217,36.113,35.314,37.381,35.885
35.25,33.245,36.150999999999996,35.315,37.324,35.9
35.177,33.294000000000004,36.187,35.316,37.266999999999996,35.918
35.103,33.365,36.219,35.317,37.211,35.939
35.03,33.461,36.246,35.316,37.154,35.961
34.955,33.583,36.268,35.314,37.098,35.983000000000004
34.881,33.732,36.284,35.311,37.042,36.004
34.805,33.907,36.293,35.306,36.985,36.022
34.729,34.107,36.297,35.299,36.928000000000004,36.039
34.653,34.333,36.295,35.29,36.871,36.052
34.577,34.580999999999996,36.287,35.279,36.814,36.062
34.501,34.849000000000004,36.275,35.266,36.757,36.069
34.426,35.134,36.258,35.25,36.7,36.074
34.351,35.433,36.236,35.231,36.643,36.075
34.278,35.742,36.211,35.208,36.586999999999996,36.074
34.207,36.056,36.181999999999995,35.181999999999995,36.532,36.07
34.137,36.373000000000005,36.150999999999996,35.150999999999996,36.477,36.065
34.069,36.689,36.119,35.117,36.424,36.056
34.001,37.001999999999995,36.086,35.078,36.371,36.046
33.933,37.308,36.051,35.035,36.319,36.033
33.866,37.604,36.016999999999996,34.989000000000004,36.269,36.019
33.8,37.889,35.982,34.94,36.22,36.001999999999995
33.734,38.161,35.949,34.889,36.173,35.985
33.668,38.417,35.916,34.835,36.128,35.966
33.603,38.655,35.884,34.779,36.085,35.945
33.539,38.875,35.854,34.722,36.043,35.922
33.475,39.074,35.825,34.664,36.004,35.897
33.413000000000004,39.253,35.797,34.605,35.967,35.87
33.352,39.409,35.769,34.545,35.931999999999995,35.841
33.292,39.544000000000004,35.741,34.485,35.900999999999996,35.811
33.234,39.656,35.711999999999996,34.425,35.872,35.778
33.177,39.748000000000005,35.683,34.366,35.845,35.744
33.122,39.819,35.652,34.306999999999995,35.821999999999996,35.709
33.067,39.873000000000005,35.62,34.25,35.802,35.672
33.014,39.909,35.584,34.193000000000005,35.785,35.634
32.961,39.929,35.546,34.135999999999996,35.771,35.595
32.91,39.935,35.503,34.078,35.758,35.556
32.859,39.927,35.458,34.019,35.747,35.516999999999996
32.809,39.906,35.409,33.958,35.738,35.479
32.76,39.874,35.358000000000004,33.896,35.73,35.441
32.711,39.830999999999996,35.305,33.830999999999996,35.724000000000004,35.405
32.663000000000004,39.779,35.251,33.765,35.718,35.37
32.615,39.718,35.195,33.696,35.714,35.335
32.567,39.650999999999996,35.138000000000005,33.626,35.711,35.301
32.519,39.577,35.080999999999996,33.554,35.709,35.266999999999996
32.471,39.498000000000005,35.024,33.481,35.707,35.233000000000004
32.423,39.414,34.969,33.406,35.705,35.199
32.376,39.326,34.916,33.33,35.704,35.164
32.329,39.236,34.866,33.253,35.703,35.13
32.286,39.143,34.819,33.175,35.702,35.094
32.248000000000005,39.049,34.775,33.096,35.7,35.058
32.219,38.955,34.736,33.016999999999996,35.696999999999996,35.02
32.202,38.86,34.7,32.938,35.693000000000005,34.982
32.203,38.766,34.668,32.86,35.688,34.945
32.225,38.673,34.641,32.784,35.681,34.907
32.274,38.58,34.617,32.709,35.672,34.87
32.353,38.486999999999995,34.595,32.637,35.661,34.834
32.467,38.395,34.577,32.568000000000005,35.647,34.799
32.617,38.303000000000004,34.559,32.501999999999995,35.632,34.765
32.804,38.211,34.543,32.439,35.614000000000004,34.732
33.031,38.12,34.525,32.38,35.594,34.7
33.295,38.029,34.507,32.324,35.571,34.669000000000004
33.595,37.938,34.486999999999995,32.271,35.547,34.639
33.929,37.847,34.465,32.222,35.522,34.611
34.293,37.755,34.442,32.175,35.496,34.583
34.681999999999995,37.664,34.417,32.132,35.47,34.555
35.091,37.573,34.391,32.091,35.443000000000005,34.528
35.514,37.482,34.367,32.053000000000004,35.416,34.501999999999995
35.945,37.391999999999996,34.346,32.019,35.389,34.476
36.379,37.303000000000004,34.33,31.99,35.361,34.45
36.811,37.216,34.323,31.965999999999998,35.334,34.424
37.234,37.131,34.328,31.949,35.305,34.398
37.646,37.05,34.349000000000004,31.943,35.275999999999996,34.372
38.041,36.972,34.388000000000005,31.95,35.246,34.346
38.417,36.898,34.449,31.974,35.215,34.32
38.77,36.83,34.534,32.016999999999996,35.183,34.294000000000004
39.1,36.766,34.641999999999996,32.084,35.150999999999996,34.268
39.404,36.705999999999996,34.775,32.176,35.118,34.244
39.681,36.652,34.931999999999995,32.296,35.085,34.22
39.931999999999995,36.602,35.111,32.445,35.051,34.198
40.155,36.558,35.311,32.624,35.018,34.178000000000004
40.351,36.518,35.527,32.833,34.985,34.161
40.52,36.482,35.757,33.07,34.951,34.145
40.662,36.451,35.995,33.333,34.917,34.132
40.778,36.425,36.239000000000004,33.622,34.883,34.119
40.867,36.402,36.483000000000004,33.931,34.849000000000004,34.108000000000004
40.931999999999995,36.383,36.725,34.259,34.815,34.097
40.972,36.368,36.961,34.6,34.782,34.086
40.989,36.356,37.187,34.951,34.748000000000005,34.074
40.985,36.348,37.400999999999996,35.306999999999995,34.715,34.062
40.961000000000006,36.344,37.601,35.663000000000004,34.681999999999995,34.047
40.918,36.342,37.783,36.014,34.648,34.032
40.858000000000004,36.344,37.946999999999996,36.356,34.614000000000004,34.014
40.782,36.347,38.093,36.685,34.58,33.995
40.69,36.352,38.218,36.997,34.546,33.973
40.585,36.358000000000004,38.323,37.29,34.512,33.95
40.467,36.363,38.409,37.56,34.477,33.926
40.338,36.368,38.475,37.806,34.442,33.900999999999996
40.199,36.371,38.524,38.025999999999996,34.407,33.875
40.051,36.372,38.556,38.22,34.372,33.85
39.897,36.369,38.571999999999996,38.385,34.336999999999996,33.826
39.736999999999995,36.363,38.575,38.522,34.302,33.802
39.575,36.353,38.566,38.632,34.266999999999996,33.781
39.41,36.34,38.546,38.714,34.232,33.762
39.245,36.324,38.516999999999996,38.771,34.198,33.748000000000005
39.080999999999996,36.305,38.479,38.804,34.164,33.74
38.917,36.282,38.434,38.814,34.132,33.741
38.753,36.256,38.382,38.804,34.101,33.753
38.589,36.227,38.325,38.774,34.07,33.778
38.426,36.195,38.263000000000005,38.728,34.04,33.817
38.262,36.16,38.196999999999996,38.666,34.010999999999996,33.874
38.097,36.122,38.126999999999995,38.591,33.982,33.949
37.931999999999995,36.082,38.056,38.504,33.954,34.044000000000004
37.765,36.04,37.982,38.407,33.926,34.158
37.599000000000004,35.995,37.906,38.301,33.900999999999996,34.29
37.434,35.948,37.83,38.188,33.878,34.44
37.27,35.9,37.754,38.069,33.858000000000004,34.605
37.108000000000004,35.849000000000004,37.677,37.948,33.845,34.785
36.951,35.796,37.601,37.824,33.839,34.977
36.797,35.742,37.527,37.7,33.844,35.18
36.65,35.686,37.454,37.575,33.863,35.391
36.509,35.63,37.383,37.451,33.896,35.608000000000004
36.375,35.571999999999996,37.315,37.328,33.948,35.828
36.249,35.513000000000005,37.249,37.205999999999996,34.016999999999996,36.047
36.13,35.454,37.185,37.084,34.106,36.264
36.02,35.394,37.123000000000005,36.963,34.214,36.476
35.918,35.334,37.063,36.841,34.341,36.68
35.825,35.273,37.005,36.719,34.486999999999995,36.874
35.74,35.213,36.948,36.598,34.65,37.056
35.665,35.152,36.893,36.476,34.829,37.223
35.599000000000004,35.092,36.839,36.354,35.022,37.375
35.542,35.033,36.786,36.233000000000004,35.226,37.510999999999996
35.494,34.975,36.735,36.113,35.439,37.63
35.454,34.917,36.684,35.993,35.657,37.731
35.422,34.86,36.634,35.874,35.876999999999995,37.816
35.398,34.804,36.586,35.757,36.098,37.885999999999996
35.382,34.749,36.538000000000004,35.64,36.315,37.94
35.372,34.694,36.491,35.525,36.527,37.979
35.368,34.64,36.445,35.412,36.731,38.005
35.368,34.585,36.400999999999996,35.301,36.926,38.019
35.373000000000005,34.53,36.359,35.193000000000005,37.11,38.022
35.381,34.475,36.318000000000005,35.086999999999996,37.28,38.014
35.391999999999996,34.419000000000004,36.281,34.984,37.437,37.998000000000005
35.404,34.363,36.247,34.884,37.578,37.974000000000004
35.417,34.306,36.216,34.789,37.704,37.943000000000005
35.43,34.249,36.19,34.698,37.814,37.905
35.443000000000005,34.193000000000005,36.168,34.611,37.909,37.861999999999995
35.454,34.135999999999996,36.15,34.53,37.989000000000004,37.815
35.463,34.079,36.137,34.454,38.055,37.764
35.471,34.022,36.126999999999995,34.385,38.107,37.711
35.476,33.965,36.121,34.321999999999996,38.146,37.655
35.478,33.909,36.119,34.265,38.173,37.598
35.476,33.853,36.12,34.215,38.19,37.54
35.47,33.798,36.124,34.171,38.196,37.482
35.46,33.744,36.131,34.133,38.195,37.425
35.446,33.692,36.14,34.1,38.185,37.368
35.427,33.641,36.149,34.073,38.169000000000004,37.311
35.403,33.592,36.16,34.051,38.146,37.255
35.374,33.544000000000004,36.17,34.033,38.117,37.2
35.341,33.497,36.181,34.018,38.084,37.146
35.303000000000004,33.452,36.191,34.007,38.046,37.093
35.260999999999996,33.409,36.2,33.998000000000005,38.005,37.04
35.216,33.367,36.208,33.992,37.961999999999996,36.99
35.167,33.326,36.214,33.986999999999995,37.916,36.941
35.115,33.287,36.218,33.983000000000004,37.868,36.893
35.061,33.249,36.219,33.981,37.818000000000005,36.847
35.004,33.213,36.218,33.98,37.766999999999996,36.802
34.944,33.177,36.215,33.98,37.714,36.759
34.882,33.143,36.209,33.98,37.662,36.716
34.818000000000005,33.11,36.2,33.98,37.608000000000004,36.674
34.751999999999995,33.077,36.187,33.981,37.555,36.632
34.684,33.047,36.172,33.98,37.501999999999995,36.591
34.615,33.019,36.153,33.979,37.449,36.55
34.543,32.995,36.13,33.975,37.396,36.51
34.471,32.978,36.104,33.97,37.344,36.469
34.398,32.969,36.075,33.961,37.292,36.427
34.325,32.97,36.044000000000004,33.949,37.24,36.385999999999996
34.251,32.985,36.01,33.933,37.189,36.345
34.178000000000004,33.015,35.974000000000004,33.913000000000004,37.137,36.305
34.105,33.064,35.937,33.889,37.086,36.266
34.033,33.133,35.898,33.861,37.035,36.229
33.96,33.225,35.858000000000004,33.829,36.984,36.195
33.888000000000005,33.342,35.816,33.793,36.934,36.165
33.816,33.483000000000004,35.774,33.753,36.884,36.137
33.744,33.650999999999996,35.732,33.708,36.834,36.114000000000004
33.672,33.845,35.688,33.66,36.784,36.095
33.6,34.063,35.643,33.608000000000004,36.735,36.080999999999996
33.528,34.306,35.598,33.553000000000004,36.686,36.071
33.455999999999996,34.569,35.551,33.495,36.638000000000005,36.066
33.385999999999996,34.852,35.503,33.434,36.591,36.066
33.317,35.15,35.455,33.373000000000005,36.545,36.07
33.249,35.459,35.407,33.31,36.5,36.078
33.183,35.775999999999996,35.358000000000004,33.247,36.457,36.09
33.117,36.097,35.308,33.184,36.416,36.104
33.053000000000004,36.417,35.259,33.121,36.376999999999995,36.121
32.989000000000004,36.735,35.209,33.056999999999995,36.34,36.138000000000005
32.926,37.045,35.158,32.994,36.306,36.157
32.864000000000004,37.347,35.108000000000004,32.931,36.275,36.176
32.802,37.637,35.056999999999995,32.868,36.248000000000005,36.193000000000005
32.74,37.912,35.007,32.806,36.224000000000004,36.21
32.679,38.171,34.955999999999996,32.744,36.204,36.225
32.618,38.412,34.906,32.683,36.187,36.238
32.556999999999995,38.634,34.857,32.623000000000005,36.173,36.248000000000005
32.497,38.834,34.808,32.565,36.162,36.256
32.438,39.013000000000005,34.76,32.508,36.154,36.26
32.38,39.169000000000004,34.714,32.454,36.149,36.26
32.323,39.303000000000004,34.67,32.402,36.146,36.258
32.268,39.416,34.626999999999995,32.352,36.145,36.251999999999995
32.214,39.507,34.585,32.305,36.146,36.243
32.162,39.578,34.545,32.26,36.149,36.232
32.111,39.63,34.506,32.217,36.152,36.218
32.062,39.665,34.468,32.176,36.157,36.202
32.014,39.681999999999995,34.431,32.137,36.163000000000004,36.181999999999995
31.967,39.685,34.395,32.099000000000004,36.169000000000004,36.16
31.92,39.672,34.36,32.063,36.176,36.135
31.874000000000002,39.647,34.327,32.027,36.181999999999995,36.108000000000004
31.828000000000003,39.609,34.295,31.991999999999997,36.188,36.079
31.781999999999996,39.56,34.265,31.958000000000002,36.192,36.049
31.736,39.5,34.236,31.924,36.195,36.018
31.689,39.431,34.208,31.889,36.195,35.986
31.64,39.354,34.18,31.854,36.192,35.953
31.590999999999998,39.271,34.153,31.819000000000003,36.186,35.919000000000004
31.541,39.181,34.126,31.783,36.176,35.885
31.491,39.086999999999996,34.098,31.747,36.164,35.849000000000004
31.441,38.989000000000004,34.071,31.71,36.149,35.812
31.395,38.888000000000005,34.043,31.673000000000002,36.131,35.775
31.355,38.783,34.016,31.635,36.111999999999995,35.736999999999995
31.324,38.677,33.988,31.599,36.09,35.699
31.305,38.57,33.96,31.566,36.067,35.66
31.303,38.463,33.931999999999995,31.535999999999998,36.042,35.621
31.322,38.357,33.904,31.511,36.016999999999996,35.580999999999996
31.366999999999997,38.251999999999995,33.876999999999995,31.493000000000002,35.99,35.54
31.444000000000003,38.149,33.85,31.485,35.961999999999996,35.498000000000005
31.555,38.048,33.824,31.49,35.934,35.454
31.704,37.948,33.799,31.509,35.904,35.409
31.892,37.849000000000004,33.777,31.546,35.874,35.361999999999995
32.122,37.749,33.759,31.603,35.842,35.314
32.391,37.65,33.746,31.682,35.81,35.264
32.699,37.55,33.741,31.785999999999998,35.775999999999996,35.214
33.042,37.45,33.745,31.914,35.741,35.163000000000004
33.416,37.349000000000004,33.763000000000005,32.068000000000005,35.704,35.111999999999995
33.817,37.247,33.795,32.247,35.666,35.062
34.239000000000004,37.144,33.846,32.451,35.626999999999995,35.014
34.677,37.042,33.918,32.677,35.586999999999996,34.968
35.123000000000005,36.939,34.013000000000005,32.924,35.547,34.925
35.571999999999996,36.839,34.131,33.189,35.508,34.884
36.018,36.741,34.273,33.467,35.469,34.845
36.455999999999996,36.645,34.439,33.756,35.431999999999995,34.809
36.881,36.554,34.626,34.051,35.397,34.775999999999996
37.288000000000004,36.466,34.834,34.347,35.361999999999995,34.744
37.674,36.382,35.059,34.641,35.329,34.713
38.035,36.304,35.296,34.93,35.298,34.684
38.37,36.232,35.543,35.209,35.266,34.654
38.675,36.165,35.795,35.475,35.236,34.625
38.951,36.106,36.047,35.726,35.205,34.596
39.196,36.052,36.295,35.959,35.174,34.567
39.411,36.006,36.536,36.172,35.143,34.538000000000004
39.596,35.967,36.765,36.364000000000004,35.113,34.508
39.751,35.935,36.98,36.533,35.082,34.478
39.878,35.909,37.178000000000004,36.679,35.052,34.449
39.978,35.889,37.358000000000004,36.802,35.021,34.419000000000004
40.051,35.875,37.518,36.902,34.99,34.389
40.1,35.865,37.659,36.98,34.96,34.359
40.125,35.861,37.779,37.038000000000004,34.93,34.329
40.129,35.859,37.881,37.076,34.900999999999996,34.3
40.111999999999995,35.861999999999995,37.964,37.096,34.873000000000005,34.27
40.076,35.867,38.03,37.098,34.845,34.242
40.022,35.876,38.08,37.084,34.818000000000005,34.214
39.953,35.885999999999996,38.115,37.056,34.791,34.188
39.869,35.899,38.135999999999996,37.016,34.764,34.163000000000004
39.772,35.913000000000004,38.145,36.965,34.738,34.139
39.664,35.927,38.141999999999996,36.906,34.711,34.117
39.546,35.941,38.126999999999995,36.84,34.685,34.097
39.419000000000004,35.954,38.102,36.766999999999996,34.659,34.076
39.285,35.965,38.067,36.69,34.633,34.055
39.144,35.973,38.022,36.609,34.608000000000004,34.035
38.998000000000005,35.978,37.969,36.525,34.582,34.014
38.847,35.98,37.907,36.439,34.556999999999995,33.993
38.693000000000005,35.979,37.839,36.352,34.532,33.972
38.534,35.974000000000004,37.765,36.263000000000005,34.507,33.952
38.373000000000005,35.966,37.686,36.173,34.482,33.933
38.209,35.954,37.603,36.083,34.458,33.916
38.043,35.939,37.516999999999996,35.993,34.434,33.900999999999996
37.876,35.922,37.43,35.902,34.41,33.887
37.705999999999996,35.903,37.342,35.811,34.385999999999996,33.873000000000005
37.536,35.882,37.254,35.719,34.361999999999995,33.861
37.365,35.858000000000004,37.167,35.626999999999995,34.336999999999996,33.849000000000004
37.194,35.832,37.080999999999996,35.533,34.312,33.836999999999996
37.023,35.803000000000004,36.997,35.44,34.287,33.825
36.853,35.772,36.916,35.345,34.262,33.813
36.685,35.739000000000004,36.836999999999996,35.249,34.239000000000004,33.802
36.52,35.703,36.762,35.150999999999996,34.217,33.79
36.359,35.665,36.691,35.052,34.198,33.781
36.203,35.625,36.624,34.952,34.181999999999995,33.774
36.053000000000004,35.584,36.561,34.851,34.17,33.773
35.908,35.541,36.501999999999995,34.748000000000005,34.162,33.777
35.77,35.497,36.446,34.645,34.161,33.79
35.641,35.451,36.393,34.541,34.167,33.814
35.52,35.403,36.343,34.438,34.183,33.853
35.409,35.353,36.295,34.336999999999996,34.211,33.909
35.309,35.302,36.249,34.238,34.253,33.984
35.22,35.249,36.202,34.141999999999996,34.311,34.079
35.143,35.195,36.156,34.051,34.387,34.195
35.077,35.14,36.109,33.965,34.483000000000004,34.332
35.023,35.084,36.061,33.885,34.598,34.49
34.981,35.025999999999996,36.013000000000005,33.812,34.734,34.667
34.95,34.968,35.965,33.745,34.891,34.863
34.931,34.909,35.917,33.685,35.067,35.073
34.922,34.849000000000004,35.869,33.631,35.26,35.296
34.922,34.789,35.821999999999996,33.585,35.469,35.528
34.931,34.729,35.778,33.545,35.691,35.765
34.946,34.67,35.736,33.51,35.923,36.004
34.968,34.611999999999995,35.696,33.481,36.163000000000004,36.241
34.995,34.554,35.661,33.457,36.408,36.474000000000004
35.025,34.497,35.629,33.438,36.654,36.699
35.058,34.44,35.601,33.422,36.898,36.915
35.093,34.384,35.578,33.411,37.138000000000005,37.12
35.128,34.329,35.56,33.403,37.372,37.311
35.162,34.273,35.546,33.399,37.598,37.488
35.195,34.219,35.537,33.398,37.814,37.65
35.225,34.164,35.531,33.4,38.018,37.794000000000004
35.253,34.111,35.529,33.404,38.209,37.921
35.278,34.058,35.531,33.411,38.384,38.031
35.299,34.006,35.535,33.419000000000004,38.543,38.124
35.316,33.954,35.542,33.428000000000004,38.686,38.202
35.328,33.902,35.551,33.437,38.811,38.264
35.334,33.852,35.561,33.446999999999996,38.919000000000004,38.312
35.336,33.802,35.571999999999996,33.455999999999996,39.01,38.347
35.330999999999996,33.751999999999995,35.583,33.464,39.085,38.369
35.321999999999996,33.703,35.594,33.471,39.145,38.379
35.306,33.654,35.603,33.476,39.19,38.379
35.286,33.605,35.611999999999995,33.478,39.222,38.369
35.260999999999996,33.556,35.619,33.479,39.242,38.35
35.231,33.507,35.624,33.477,39.25,38.324
35.196999999999996,33.458,35.626999999999995,33.472,39.246,38.291
35.158,33.409,35.628,33.465,39.232,38.253
35.115,33.361,35.626999999999995,33.455,39.209,38.209
35.068000000000005,33.312,35.623000000000005,33.443000000000005,39.178000000000004,38.16
35.018,33.264,35.617,33.428000000000004,39.141,38.106
34.965,33.218,35.608000000000004,33.411,39.097,38.048
34.91,33.173,35.597,33.391999999999996,39.05,37.986
34.853,33.13,35.583,33.372,38.999,37.92
34.795,33.09,35.566,33.351,38.945,37.851
34.736999999999995,33.055,35.547,33.328,38.889,37.781
34.678000000000004,33.025,35.524,33.304,38.832,37.709
34.619,33.001999999999995,35.499,33.279,38.774,37.637
34.559,32.986999999999995,35.471,33.251999999999995,38.715,37.565
34.5,32.983000000000004,35.44,33.225,38.656,37.493
34.439,32.991,35.408,33.196999999999996,38.598,37.423
34.378,33.014,35.375,33.167,38.541,37.355
34.316,33.054,35.341,33.135999999999996,38.485,37.29
34.251999999999995,33.115,35.306999999999995,33.103,38.431,37.227
34.187,33.196999999999996,35.272,33.068000000000005,38.379,37.166
34.121,33.304,35.236999999999995,33.032,38.329,37.106
34.054,33.435,35.202,32.993,38.281,37.048
33.986999999999995,33.592,35.166,32.953,38.234,36.991
33.92,33.775,35.13,32.911,38.187,36.934
33.852,33.982,35.093,32.868,38.141999999999996,36.876999999999995
33.785,34.211,35.055,32.823,38.095,36.819
33.718,34.461999999999996,35.015,32.777,38.049,36.76
33.650999999999996,34.73,34.975,32.732,38.001,36.702
33.585,35.013000000000005,34.933,32.686,37.952,36.643
33.519,35.306999999999995,34.889,32.641,37.902,36.584
33.454,35.609,34.844,32.597,37.85,36.525999999999996
33.391,35.914,34.798,32.554,37.798,36.469
33.329,36.219,34.751999999999995,32.512,37.744,36.414
33.269,36.521,34.705999999999996,32.471,37.689,36.361999999999995
33.21,36.816,34.662,32.431,37.635,36.313
33.153,37.101,34.619,32.391999999999996,37.580999999999996,36.266999999999996
33.097,37.374,34.578,32.354,37.528,36.226
33.043,37.632,34.538000000000004,32.316,37.477,36.19
32.99,37.873000000000005,34.501,32.279,37.428000000000004,36.158
32.939,38.095,34.466,32.242,37.38,36.131
32.888000000000005,38.297,34.433,32.205,37.335,36.108000000000004
32.839,38.478,34.4,32.168,37.292,36.09
32.79,38.638000000000005,34.369,32.131,37.251999999999995,36.076
32.741,38.775,34.338,32.094,37.216,36.066
32.692,38.89,34.308,32.059,37.181999999999995,36.058
32.643,38.983000000000004,34.278,32.023,37.15,36.054
32.592,39.054,34.249,31.989,37.122,36.052
32.542,39.105,34.22,31.956,37.096,36.053000000000004
32.49,39.137,34.19,31.923000000000002,37.073,36.056999999999995
32.437,39.150999999999996,34.161,31.89,37.053000000000004,36.063
32.384,39.148,34.132,31.858,37.035,36.07
32.33,39.13,34.104,31.826,37.02,36.079
32.275,39.099000000000004,34.075,31.796,37.007,36.089
32.22,39.056,34.047,31.769000000000002,36.997,36.099000000000004
32.165,39.004,34.019,31.747,36.989000000000004,36.11
32.109,38.943000000000005,33.992,31.730999999999998,36.983000000000004,36.121
32.053000000000004,38.875,33.965,31.725,36.979,36.131
31.997,38.8,33.938,31.732,36.976,36.14
31.941,38.719,33.911,31.755,36.974000000000004,36.148
31.886,38.634,33.885,31.796999999999997,36.972,36.154
31.83,38.545,33.859,31.861,36.97,36.157
31.776,38.452,33.833,31.949,36.967,36.158
31.723000000000003,38.356,33.808,32.064,36.963,36.155
31.674,38.258,33.783,32.205,36.957,36.149
31.631,38.158,33.758,32.372,36.95,36.141
31.596999999999998,38.056,33.734,32.566,36.94,36.13
31.576,37.952,33.71,32.783,36.93,36.117
31.572,37.848,33.687,33.023,36.917,36.101
31.59,37.743,33.665,33.28,36.902,36.083
31.634,37.637,33.644,33.553000000000004,36.885999999999996,36.063
31.709,37.532,33.626,33.836999999999996,36.868,36.041
31.816999999999997,37.426,33.609,34.129,36.848,36.016999999999996
31.962,37.32,33.595,34.423,36.826,35.99
32.146,37.214,33.580999999999996,34.717,36.803000000000004,35.961
32.368,37.108000000000004,33.569,35.006,36.778,35.93
32.629,37.001,33.556999999999995,35.287,36.751999999999995,35.896
32.925,36.894,33.544000000000004,35.556999999999995,36.725,35.861
33.254,36.787,33.531,35.813,36.696,35.824
33.611999999999995,36.681,33.518,36.054,36.666,35.786
33.994,36.575,33.505,36.275999999999996,36.634,35.747
34.393,36.47,33.494,36.48,36.601,35.708
34.804,36.366,33.486,36.663000000000004,36.567,35.668
35.22,36.265,33.484,36.826,36.53,35.629
35.637,36.167,33.489000000000004,36.967,36.493,35.59
36.048,36.071,33.503,37.088,36.453,35.55
36.448,35.979,33.529,37.187,36.413000000000004,35.510999999999996
36.833,35.891,33.571,37.265,36.371,35.472
37.199,35.808,33.629,37.321999999999996,36.328,35.431999999999995
37.542,35.73,33.707,37.359,36.284,35.391
37.861,35.658,33.806,37.378,36.24,35.35
38.153,35.591,33.927,37.378,36.196,35.308
38.416,35.531,34.07,37.361999999999995,36.150999999999996,35.265
38.650999999999996,35.478,34.235,37.332,36.107,35.223
38.855,35.433,34.42,37.289,36.063,35.18
39.03,35.394,34.623000000000005,37.235,36.02,35.138000000000005
39.175,35.361999999999995,34.841,37.172,35.977,35.096
39.292,35.336999999999996,35.071,37.101,35.935,35.054
39.381,35.318000000000005,35.31,37.024,35.895,35.010999999999996
39.444,35.305,35.554,36.942,35.855,34.968
39.482,35.298,35.798,36.856,35.816,34.924
39.496,35.295,36.038000000000004,36.768,35.778,34.881
39.49,35.298,36.272,36.678000000000004,35.74,34.838
39.463,35.304,36.494,36.586,35.702,34.795
39.419000000000004,35.314,36.702,36.495,35.663000000000004,34.753
39.357,35.325,36.894,36.404,35.623000000000005,34.711999999999996
39.281,35.339,37.069,36.314,35.582,34.673
39.191,35.354,37.225,36.225,35.54,34.635999999999996
39.09,35.37,37.361,36.137,35.498000000000005,34.601
38.979,35.387,37.478,36.049,35.455999999999996,34.568000000000005
38.859,35.404,37.576,35.961999999999996,35.413000000000004,34.537
38.731,35.42,37.656,35.875,35.372,34.507
38.595,35.436,37.717,35.788000000000004,35.333,34.477
38.453,35.449,37.76,35.701,35.296,34.449
38.306,35.461,37.786,35.614000000000004,35.262,34.42
38.155,35.471,37.797,35.525999999999996,35.23,34.391999999999996
38.001,35.478,37.793,35.438,35.2,34.364000000000004
37.844,35.482,37.774,35.348,35.17,34.336
37.685,35.484,37.743,35.257,35.14,34.306999999999995
37.525999999999996,35.483000000000004,37.701,35.166,35.109,34.278
37.366,35.48,37.649,35.073,35.076,34.249
37.207,35.474000000000004,37.588,34.981,35.041,34.22
37.048,35.464,37.519,34.889,35.005,34.191
36.89,35.451,37.445,34.798,34.967,34.162
36.734,35.434,37.365,34.709,34.926,34.135
36.579,35.412,37.283,34.624,34.884,34.108000000000004
36.426,35.387,37.198,34.542,34.84,34.083
36.274,35.358000000000004,37.111999999999995,34.465,34.796,34.058
36.124,35.325,37.025999999999996,34.394,34.751999999999995,34.035
35.976,35.289,36.94,34.33,34.709,34.013000000000005
35.83,35.248000000000005,36.856,34.273,34.667,33.992
35.687,35.204,36.773,34.224000000000004,34.626,33.972
35.546,35.157,36.693000000000005,34.181,34.586999999999996,33.953
35.41,35.107,36.616,34.146,34.55,33.935
35.278,35.053000000000004,36.541,34.117,34.515,33.916
35.153,34.998000000000005,36.469,34.095,34.481,33.896
35.034,34.94,36.398,34.079,34.448,33.875
34.923,34.881,36.33,34.069,34.416,33.852
34.821,34.821,36.263000000000005,34.062,34.385999999999996,33.829
34.729,34.760999999999996,36.198,34.06,34.356,33.806
34.646,34.7,36.134,34.062,34.328,33.785
34.574,34.639,36.071999999999996,34.066,34.301,33.768
34.512,34.578,36.010999999999996,34.073,34.275,33.755
34.46,34.516999999999996,35.951,34.083,34.251,33.749
34.418,34.457,35.891,34.095,34.228,33.751999999999995
34.387,34.397,35.833,34.108000000000004,34.207,33.766
34.364000000000004,34.338,35.775,34.121,34.186,33.794000000000004
34.351,34.281,35.719,34.134,34.165,33.838
34.346,34.225,35.664,34.146,34.146,33.899
34.348,34.171,35.61,34.158,34.126999999999995,33.979
34.356,34.118,35.556999999999995,34.168,34.109,34.08
34.368,34.068000000000005,35.506,34.178000000000004,34.094,34.201
34.383,34.019,35.457,34.186,34.082,34.341
34.400999999999996,33.972,35.411,34.192,34.074,34.5
34.421,33.927,35.368,34.196999999999996,34.071999999999996,34.675
34.441,33.883,35.328,34.199,34.078,34.864000000000004
34.461999999999996,33.841,35.292,34.198,34.094,35.065
34.483000000000004,33.8,35.259,34.195,34.122,35.275
34.501999999999995,33.76,35.229,34.189,34.166,35.492
34.519,33.72,35.203,34.179,34.227,35.714
34.535,33.68,35.18,34.166,34.306999999999995,35.937
34.548,33.64,35.16,34.149,34.409,36.159
34.559,33.6,35.141999999999996,34.129,34.534,36.376999999999995
34.568000000000005,33.56,35.126999999999995,34.105,34.681999999999995,36.59
34.571999999999996,33.519,35.115,34.079,34.852,36.794000000000004
34.573,33.478,35.107,34.051,35.043,36.988
34.57,33.436,35.101,34.02,35.254,37.171
34.562,33.394,35.098,33.986999999999995,35.483000000000004,37.341
34.549,33.352,35.098,33.953,35.727,37.497
34.532,33.31,35.101,33.917,35.983000000000004,37.64
34.510999999999996,33.268,35.106,33.88,36.249,37.768
34.485,33.228,35.114000000000004,33.842,36.52,37.88
34.455,33.188,35.123000000000005,33.803000000000004,36.795,37.977
34.42,33.15,35.134,33.764,37.068000000000005,38.059
34.382,33.114000000000004,35.145,33.724000000000004,37.338,38.125
34.342,33.078,35.156,33.683,37.602,38.176
34.299,33.044000000000004,35.165,33.641999999999996,37.856,38.211999999999996
34.254,33.010999999999996,35.173,33.6,38.099000000000004,38.235
34.208,32.979,35.18,33.556,38.328,38.245
34.161,32.946999999999996,35.184,33.513000000000005,38.54,38.244
34.113,32.917,35.185,33.468,38.735,38.231
34.063,32.887,35.181999999999995,33.423,38.912,38.208
34.013000000000005,32.86,35.176,33.376999999999995,39.07,38.175
33.961,32.835,35.167,33.33,39.209,38.135
33.908,32.812,35.155,33.282,39.329,38.086999999999996
33.853,32.795,35.139,33.234,39.43,38.033
33.796,32.783,35.121,33.186,39.514,37.973
33.736,32.78,35.101,33.137,39.58,37.908
33.674,32.787,35.078,33.088,39.63,37.838
33.61,32.808,35.053000000000004,33.038000000000004,39.664,37.765
33.544000000000004,32.845,35.027,32.989000000000004,39.683,37.689
33.477,32.9,34.998000000000005,32.941,39.688,37.611
33.41,32.975,34.968,32.891999999999996,39.681,37.533
33.341,33.073,34.937,32.845,39.662,37.453
33.273,33.196,34.904,32.797,39.633,37.374
33.205,33.346,34.87,32.751,39.596,37.294000000000004
33.137,33.522,34.834,32.705,39.55,37.215
33.07,33.724000000000004,34.798,32.659,39.498000000000005,37.135
33.003,33.952,34.76,32.614000000000004,39.44,37.056999999999995
32.938,34.203,34.723,32.57,39.378,36.98
32.874,34.475,34.684,32.525999999999996,39.312,36.903
32.81,34.764,34.645,32.483000000000004,39.244,36.828
32.748000000000005,35.067,34.606,32.441,39.174,36.754
32.687,35.381,34.567,32.4,39.104,36.681
32.626999999999995,35.701,34.528,32.36,39.034,36.608000000000004
32.567,36.023,34.489000000000004,32.321999999999996,38.964,36.537
32.509,36.344,34.451,32.284,38.896,36.468
32.452,36.66,34.412,32.249,38.83,36.399
32.397,36.967,34.373000000000005,32.216,38.766,36.333
32.344,37.263000000000005,34.334,32.187,38.705,36.268
32.293,37.544000000000004,34.295,32.163000000000004,38.646,36.205
32.245,37.809,34.255,32.147,38.588,36.144
32.198,38.055,34.215,32.141999999999996,38.531,36.085
32.153,38.28,34.175,32.15,38.475,36.029
32.108000000000004,38.485,34.134,32.175,38.419000000000004,35.975
32.065,38.669000000000004,34.094,32.22,38.361999999999995,35.923
32.022,38.83,34.054,32.287,38.304,35.874
31.979,38.97,34.015,32.379,38.246,35.829
31.936,39.088,33.976,32.497,38.185,35.787
31.892,39.185,33.94,32.643,38.123000000000005,35.749
31.848000000000003,39.260999999999996,33.904,32.817,38.06,35.716
31.804000000000002,39.317,33.87,33.016999999999996,37.996,35.686
31.758000000000003,39.353,33.836999999999996,33.243,37.931,35.661
31.712,39.37,33.805,33.491,37.867,35.64
31.665,39.371,33.773,33.759,37.802,35.625
31.616999999999997,39.355,33.742,34.044000000000004,37.739000000000004,35.615
31.569000000000003,39.324,33.711,34.341,37.676,35.61
31.519000000000002,39.281,33.681,34.648,37.614000000000004,35.611
31.469,39.226,33.652,34.96,37.555,35.616
31.418000000000003,39.162,33.624,35.272,37.499,35.624
31.366999999999997,39.091,33.598,35.580999999999996,37.445,35.635
31.316,39.013000000000005,33.573,35.884,37.394,35.647
31.266,38.93,33.55,36.176,37.347,35.659
31.219,38.843,33.529,36.454,37.304,35.672
31.176,38.753,33.509,36.715,37.264,35.684
31.14,38.662,33.489000000000004,36.957,37.228,35.694
31.115,38.569,33.47,37.178000000000004,37.195,35.704
31.105,38.476,33.451,37.376,37.165,35.713
31.113000000000003,38.382,33.433,37.552,37.138000000000005,35.721
31.145,38.288000000000004,33.414,37.705,37.114000000000004,35.728
31.204,38.194,33.396,37.834,37.094,35.733000000000004
31.294,38.099000000000004,33.378,37.939,37.077,35.736
31.418000000000003,38.003,33.361,38.022,37.062,35.736
31.578000000000003,37.907,33.344,38.082,37.049,35.734
31.775,37.81,33.328,38.122,37.038000000000004,35.73
32.009,37.714,33.312,38.141,37.029,35.724000000000004
32.278,37.619,33.298,38.141999999999996,37.021,35.716
32.579,37.524,33.284,38.126,37.014,35.705
32.909,37.43,33.27,38.095,37.007,35.693000000000005
33.262,37.336999999999996,33.258,38.051,37.001,35.678000000000004
33.635999999999996,37.245,33.245,37.995,36.995,35.66
34.023,37.153,33.233000000000004,37.928000000000004,36.989000000000004,35.639
34.419000000000004,37.063,33.222,37.853,36.982,35.614000000000004
34.819,36.974000000000004,33.21,37.769,36.975,35.585
35.216,36.885,33.2,37.68,36.967,35.554
35.605,36.797,33.19,37.585,36.959,35.519
35.982,36.711,33.183,37.486,36.949,35.481
36.343,36.626999999999995,33.179,37.385,36.938,35.441
36.684,36.544000000000004,33.18,37.281,36.926,35.399
37.001999999999995,36.464,33.187,37.176,36.911,35.354
37.296,36.387,33.204,37.071,36.894,35.308
37.563,36.313,33.231,36.966,36.875,35.260999999999996
37.803000000000004,36.243,33.273,36.861,36.853,35.213
38.015,36.178000000000004,33.33,36.757,36.829,35.164
38.2,36.116,33.405,36.654,36.803000000000004,35.114000000000004
38.356,36.06,33.499,36.552,36.774,35.065
38.486,36.008,33.611999999999995,36.453,36.742,35.016
38.588,35.961999999999996,33.743,36.354,36.707,34.967
38.665,35.92,33.893,36.258,36.668,34.919000000000004
38.717,35.885,34.059,36.164,36.626999999999995,34.872
38.746,35.856,34.239000000000004,36.071,36.584,34.825
38.753,35.833,34.431999999999995,35.978,36.537,34.779
38.739000000000004,35.817,34.634,35.885999999999996,36.489000000000004,34.735
38.705999999999996,35.806999999999995,34.841,35.794000000000004,36.439,34.692
38.655,35.803000000000004,35.052,35.701,36.387,34.652
38.588,35.805,35.260999999999996,35.608000000000004,36.334,34.611999999999995
38.506,35.811,35.466,35.514,36.28,34.573
38.412,35.821,35.664,35.42,36.225,34.534
38.305,35.834,35.85,35.326,36.17,34.496
38.19,35.848,36.024,35.231,36.114000000000004,34.457
38.065,35.863,36.181999999999995,35.138000000000005,36.059,34.418
37.935,35.879,36.321999999999996,35.047,36.003,34.379
37.799,35.893,36.444,34.958,35.948,34.338
37.66,35.905,36.547,34.874,35.893,34.297
37.519,35.915,36.631,34.793,35.84,34.256
37.376,35.921,36.695,34.719,35.788000000000004,34.214
37.233000000000004,35.923,36.74,34.65,35.736,34.173
37.088,35.922,36.766,34.588,35.685,34.132
36.944,35.916,36.775999999999996,34.534,35.634,34.092
36.799,35.906,36.77,34.486999999999995,35.584,34.054
36.655,35.893,36.751,34.448,35.534,34.016
36.510999999999996,35.876,36.721,34.417,35.484,33.979
36.368,35.856,36.68,34.393,35.433,33.942
36.226,35.833,36.631,34.376999999999995,35.383,33.906
36.086,35.806999999999995,36.573,34.369,35.332,33.871
35.946999999999996,35.778,36.51,34.367,35.281,33.836999999999996
35.81,35.747,36.442,34.37,35.231,33.804
35.674,35.713,36.37,34.38,35.18,33.771
35.54,35.677,36.296,34.393,35.13,33.739000000000004
35.409,35.638000000000005,36.219,34.411,35.079,33.707
35.28,35.597,36.14,34.431,35.03,33.676
35.154,35.554,36.061,34.454,34.98,33.646
35.032,35.51,35.98,34.479,34.931999999999995,33.617
34.914,35.463,35.899,34.505,34.884,33.588
34.801,35.416,35.818000000000005,34.53,34.836999999999996,33.559
34.693000000000005,35.366,35.738,34.555,34.791,33.53
34.591,35.314,35.66,34.577,34.746,33.501999999999995
34.495,35.26,35.583,34.597,34.703,33.474000000000004
34.407,35.204,35.508,34.615,34.661,33.446
34.327,35.146,35.436,34.628,34.621,33.419000000000004
34.255,35.086,35.366,34.638000000000005,34.583,33.391999999999996
34.192,35.025999999999996,35.299,34.645,34.546,33.367
34.135999999999996,34.966,35.234,34.646,34.51,33.343
34.089,34.905,35.172,34.644,34.475,33.321999999999996
34.051,34.845,35.111999999999995,34.635999999999996,34.441,33.303000000000004
34.02,34.784,35.055,34.625,34.407,33.29
33.997,34.723,34.999,34.609,34.374,33.285
33.981,34.663000000000004,34.945,34.589,34.341,33.29
33.972,34.604,34.891999999999996,34.566,34.309,33.306999999999995
33.968,34.544000000000004,34.841,34.539,34.277,33.336999999999996
33.97,34.485,34.791,34.51,34.245,33.383
33.976,34.426,34.742,34.477,34.214,33.446
33.986,34.366,34.694,34.443000000000005,34.181999999999995,33.527
33.999,34.306999999999995,34.647,34.406,34.150999999999996,33.628
34.015,34.248000000000005,34.601,34.367,34.12,33.751
34.032,34.19,34.556,34.326,34.089,33.894
34.051,34.131,34.513000000000005,34.284,34.056999999999995,34.059
34.071999999999996,34.073,34.473,34.239000000000004,34.025,34.244
34.092,34.016,34.435,34.194,33.994,34.446999999999996
34.114000000000004,33.96,34.4,34.146,33.963,34.667
34.135,33.906,34.369,34.098,33.931999999999995,34.9
34.155,33.854,34.343,34.049,33.903,35.145
34.174,33.803000000000004,34.32,33.998000000000005,33.875,35.399
34.191,33.755,34.302,33.946,33.849000000000004,35.659
34.204,33.708,34.288000000000004,33.893,33.824,35.922
34.214,33.663000000000004,34.277,33.838,33.801,36.185
34.219,33.619,34.27,33.782,33.779,36.446
34.219,33.576,34.265,33.724000000000004,33.757,36.702
34.214,33.534,34.263000000000005,33.666,33.736,36.951
34.203,33.493,34.265,33.608000000000004,33.715,37.19
34.187,33.452,34.269,33.55,33.694,37.419000000000004
34.165,33.412,34.275999999999996,33.492,33.673,37.634
34.139,33.371,34.285,33.436,33.652,37.835
34.109,33.33,34.297,33.381,33.632,38.02
34.076,33.288000000000004,34.31,33.329,33.613,38.188
34.04,33.245,34.325,33.278,33.598,38.339
34.0,33.202,34.341,33.23,33.586999999999996,38.471
33.958,33.158,34.358000000000004,33.184,33.582,38.585
33.913000000000004,33.113,34.375,33.14,33.586,38.681
33.865,33.067,34.393,33.098,33.602,38.758
33.815,33.021,34.409,33.056999999999995,33.632,38.818000000000005
33.760999999999996,32.975,34.425,33.016,33.679,38.861
33.705,32.929,34.44,32.977,33.745,38.887
33.646,32.883,34.452,32.937,33.832,38.898
33.586,32.839,34.461999999999996,32.898,33.943000000000005,38.896
33.525,32.796,34.468,32.86,34.076,38.881
33.463,32.755,34.472,32.821999999999996,34.233000000000004,38.855
33.402,32.717,34.473,32.785,34.411,38.82
33.341,32.681,34.47,32.748000000000005,34.61,38.775
33.28,32.648,34.464,32.713,34.828,38.723
33.22,32.619,34.454,32.677,35.063,38.664
33.159,32.595,34.442,32.641999999999996,35.311,38.601
33.099000000000004,32.576,34.427,32.607,35.571,38.533
33.04,32.565,34.408,32.571,35.839,38.463
32.98,32.563,34.388000000000005,32.535,36.111999999999995,38.39
32.922,32.574,34.365,32.5,36.388000000000005,38.315
32.866,32.6,34.34,32.468,36.664,38.239000000000004
32.81,32.643,34.314,32.44,36.936,38.163000000000004
32.756,32.707,34.286,32.418,37.2,38.086999999999996
32.704,32.794000000000004,34.259,32.405,37.455999999999996,38.012
32.653,32.907,34.231,32.403,37.699,37.938
32.602,33.047,34.204,32.415,37.929,37.866
32.553000000000004,33.215,34.177,32.444,38.144,37.797
32.504,33.411,34.152,32.495,38.342,37.729
32.455999999999996,33.634,34.128,32.569,38.522,37.663000000000004
32.408,33.883,34.104,32.669000000000004,38.684,37.599000000000004
32.359,34.156,34.080999999999996,32.797,38.827,37.536
32.31,34.45,34.058,32.954,38.95,37.475
32.260999999999996,34.760999999999996,34.036,33.139,39.054,37.415
32.211999999999996,35.086,34.012,33.353,39.138000000000005,37.356
32.164,35.42,33.989000000000004,33.593,39.205,37.297
32.116,35.76,33.965,33.856,39.255,37.238
32.068000000000005,36.101,33.941,34.139,39.289,37.178000000000004
32.02,36.438,33.917,34.438,39.306999999999995,37.117
31.973000000000003,36.769,33.891999999999996,34.749,39.312,37.056999999999995
31.927,37.088,33.867,35.068000000000005,39.303000000000004,36.996
31.881,37.394,33.841,35.389,39.283,36.936
31.836,37.684,33.815,35.71,39.251,36.876
31.79,37.955,33.787,36.027,39.211,36.819
31.745,38.205999999999996,33.758,36.336,39.161,36.763000000000005
31.701,38.435,33.728,36.634,39.104,36.71
31.656,38.64,33.696999999999996,36.918,39.04,36.66
31.612,38.821999999999996,33.665,37.185,38.971,36.613
31.568,38.98,33.632,37.434,38.898,36.569
31.524,39.113,33.6,37.663000000000004,38.821999999999996,36.527
31.479,39.223,33.569,37.87,38.743,36.489000000000004
31.435,39.31,33.539,38.054,38.663000000000004,36.454
31.391,39.375,33.512,38.215,38.582,36.423
31.349,39.421,33.486999999999995,38.353,38.5,36.396
31.307,39.448,33.464,38.467,38.418,36.373000000000005
31.269000000000002,39.457,33.443000000000005,38.559,38.336,36.355
31.234,39.452,33.424,38.629,38.255,36.341
31.206,39.433,33.406,38.679,38.173,36.332
31.188000000000002,39.402,33.388000000000005,38.709,38.093,36.327
31.180999999999997,39.361999999999995,33.37,38.721,38.014,36.326
31.19,39.313,33.353,38.716,37.936,36.327
31.219,39.256,33.335,38.696,37.86,36.332
31.271,39.194,33.316,38.662,37.786,36.336999999999996
31.349,39.126,33.298,38.617,37.713,36.344
31.458000000000002,39.054,33.278,38.561,37.641,36.35
31.598000000000003,38.978,33.259,38.496,37.571,36.355
31.773000000000003,38.899,33.239000000000004,38.424,37.5,36.359
31.980999999999998,38.816,33.218,38.345,37.43,36.361999999999995
32.222,38.73,33.198,38.262,37.361,36.361999999999995
32.494,38.641999999999996,33.177,38.175,37.292,36.361
32.794000000000004,38.552,33.156,38.085,37.223,36.358000000000004
33.116,38.461,33.135,37.992,37.155,36.354
33.458,38.369,33.113,37.898,37.089,36.349000000000004
33.813,38.275999999999996,33.092,37.802,37.024,36.342
34.177,38.184,33.071,37.705,36.961999999999996,36.334
34.543,38.091,33.051,37.608000000000004,36.900999999999996,36.324
34.908,37.998000000000005,33.031,37.51,36.843,36.314
35.265,37.904,33.010999999999996,37.412,36.788000000000004,36.302
35.611,37.811,32.993,37.314,36.736,36.288000000000004
35.941,37.719,32.975,37.217,36.686,36.272
36.253,37.626999999999995,32.959,37.121,36.64,36.253
36.542,37.537,32.945,37.025999999999996,36.596,36.231
36.806999999999995,37.446999999999996,32.934,36.931,36.556,36.205999999999996
37.046,37.359,32.925,36.836999999999996,36.52,36.178000000000004
37.258,37.273,32.92,36.743,36.486999999999995,36.147
37.442,37.187,32.921,36.650999999999996,36.457,36.111999999999995
37.597,37.103,32.927,36.559,36.43,36.075
37.724000000000004,37.019,32.942,36.469,36.407,36.035
37.823,36.936,32.967,36.379,36.388000000000005,35.994
37.896,36.854,33.004,36.291,36.372,35.952
37.944,36.773,33.055,36.204,36.359,35.909
37.969,36.693000000000005,33.121,36.118,36.348,35.864000000000004
37.972,36.613,33.204,36.033,36.34,35.818000000000005
37.955999999999996,36.535,33.304,35.95,36.335,35.772
37.923,36.459,33.423,35.868,36.330999999999996,35.725
37.873000000000005,36.384,33.56,35.788000000000004,36.329,35.679
37.81,36.312,33.714,35.71,36.328,35.632
37.734,36.242,33.883,35.633,36.329,35.585
37.647,36.175,34.065,35.56,36.330999999999996,35.537
37.55,36.113,34.256,35.49,36.332,35.489000000000004
37.445,36.054,34.454,35.424,36.334,35.441
37.333,36.0,34.656,35.363,36.334,35.391999999999996
37.215,35.951,34.856,35.306,36.333,35.342
37.093,35.908,35.053000000000004,35.254,36.329,35.293
36.966,35.87,35.244,35.205999999999996,36.324,35.243
36.836,35.838,35.424,35.163000000000004,36.316,35.193000000000005
36.703,35.812,35.592,35.123000000000005,36.304,35.141999999999996
36.569,35.791,35.746,35.088,36.29,35.092
36.434,35.774,35.885,35.058,36.272,35.042
36.299,35.760999999999996,36.006,35.032,36.249,34.991
36.164,35.751999999999995,36.109,35.010999999999996,36.223,34.941
36.029,35.746,36.195,34.994,36.194,34.891
35.896,35.741,36.262,34.981,36.161,34.84
35.765,35.739000000000004,36.311,34.973,36.126,34.79
35.635999999999996,35.736999999999995,36.344,34.968,36.088,34.739000000000004
35.509,35.736999999999995,36.361,34.967,36.049,34.689
35.384,35.736,36.364000000000004,34.968,36.009,34.64
35.260999999999996,35.735,36.354,34.973,35.967,34.591
35.14,35.733000000000004,36.332,34.98,35.924,34.543
35.021,35.73,36.3,34.988,35.881,34.497
34.904,35.727,36.26,34.998000000000005,35.836999999999996,34.451
34.79,35.722,36.213,35.007,35.792,34.408
34.678000000000004,35.715,36.161,35.016999999999996,35.746,34.366
34.57,35.707,36.104,35.025999999999996,35.7,34.326
34.466,35.696,36.044000000000004,35.035,35.653,34.288000000000004
34.365,35.681999999999995,35.981,35.042,35.605,34.251
34.269,35.666,35.916,35.048,35.556,34.217
34.179,35.647,35.85,35.051,35.506,34.185
34.094,35.625,35.781,35.053000000000004,35.455,34.153
34.016,35.6,35.711999999999996,35.051,35.403,34.123000000000005
33.944,35.571,35.641,35.046,35.351,34.093
33.88,35.54,35.569,35.036,35.297,34.063
33.823,35.506,35.498000000000005,35.023,35.242,34.033
33.774,35.469,35.426,35.005,35.187,34.004
33.733000000000004,35.429,35.354,34.983000000000004,35.13,33.975
33.7,35.385999999999996,35.282,34.957,35.074,33.946
33.675,35.341,35.211999999999996,34.927,35.016999999999996,33.917
33.659,35.293,35.141999999999996,34.893,34.961,33.889
33.650999999999996,35.242,35.074,34.855,34.905,33.861999999999995
33.65,35.188,35.007,34.816,34.849000000000004,33.835
33.657,35.133,34.943000000000005,34.773,34.794000000000004,33.809
33.671,35.077,34.88,34.729,34.739000000000004,33.782
33.691,35.019,34.82,34.683,34.684,33.756
33.716,34.96,34.762,34.635999999999996,34.629,33.73
33.745,34.9,34.707,34.586999999999996,34.574,33.705
33.777,34.839,34.654,34.537,34.52,33.681999999999995
33.812,34.778,34.602,34.486,34.468,33.66
33.847,34.716,34.553000000000004,34.435,34.417,33.641
33.882,34.654,34.505,34.384,34.367,33.624
33.916,34.591,34.458,34.333,34.32,33.611
33.949,34.528,34.412,34.282,34.274,33.604
33.979,34.465,34.367,34.232,34.23,33.605
34.007,34.400999999999996,34.323,34.181999999999995,34.187,33.615
34.03,34.339,34.281,34.132,34.146,33.638000000000005
34.049,34.275999999999996,34.241,34.082,34.107,33.677
34.063,34.215,34.204,34.032,34.068000000000005,33.734
34.071,34.154,34.169000000000004,33.981,34.03,33.812
34.075,34.094,34.138000000000005,33.93,33.992,33.913000000000004
34.074,34.034,34.111,33.878,33.955,34.038000000000004
34.067,33.976,34.089,33.826,33.918,34.187
34.056,33.918,34.071,33.774,33.882,34.361
34.041,33.86,34.056999999999995,33.723,33.847,34.559
34.023,33.803000000000004,34.049,33.672,33.812,34.778
34.0,33.746,34.044000000000004,33.622,33.777,35.016
33.975,33.69,34.044000000000004,33.571999999999996,33.743,35.272
33.946999999999996,33.634,34.047,33.522,33.708,35.541
33.917,33.579,34.053000000000004,33.473,33.674,35.82
33.884,33.525999999999996,34.062,33.425,33.64,36.106
33.848,33.473,34.074,33.376999999999995,33.606,36.394
33.81,33.42,34.088,33.33,33.571999999999996,36.683
33.771,33.369,34.104,33.285,33.539,36.967
33.729,33.318000000000005,34.122,33.24,33.506,37.245
33.686,33.268,34.141999999999996,33.195,33.474000000000004,37.514
33.641,33.219,34.163000000000004,33.15,33.442,37.771
33.596,33.171,34.185,33.105,33.411,38.014
33.549,33.125,34.208,33.059,33.381,38.242
33.503,33.079,34.231,33.013000000000005,33.352,38.453
33.455,33.035,34.253,32.966,33.324,38.645
33.408,32.992,34.275,32.92,33.297,38.819
33.36,32.95,34.296,32.873000000000005,33.27,38.973
33.312,32.909,34.316,32.828,33.244,39.108000000000004
33.263000000000005,32.869,34.335,32.784,33.219,39.224000000000004
33.214,32.828,34.351,32.744,33.194,39.321
33.164,32.788000000000004,34.366,32.708,33.17,39.400999999999996
33.114000000000004,32.747,34.376999999999995,32.678000000000004,33.147,39.464
33.064,32.707,34.385999999999996,32.658,33.123000000000005,39.510999999999996
33.013000000000005,32.666,34.391,32.649,33.1,39.545
32.963,32.626,34.391999999999996,32.655,33.076,39.566
32.914,32.586,34.39,32.679,33.053000000000004,39.575
32.866,32.547,34.384,32.723,33.029,39.573
32.817,32.509,34.376,32.792,33.006,39.56
32.77,32.473,34.365,32.888000000000005,32.982,39.537
32.723,32.44,34.352,33.012,32.958,39.504
32.677,32.411,34.338,33.166,32.934,39.463
32.632,32.388000000000005,34.321999999999996,33.349000000000004,32.911,39.415
32.588,32.373000000000005,34.305,33.561,32.887,39.359
32.545,32.369,34.287,33.8,32.865,39.298
32.501,32.378,34.268,34.066,32.844,39.232
32.458,32.405,34.248000000000005,34.354,32.826,39.163000000000004
32.415,32.45,34.227,34.661,32.812,39.09
32.372,32.516999999999996,34.205999999999996,34.983000000000004,32.804,39.015
32.328,32.607,34.185,35.316,32.803000000000004,38.939
32.285,32.723,34.163000000000004,35.656,32.812,38.861999999999995
32.242,32.865,34.141,35.998000000000005,32.833,38.785
32.199,33.034,34.118,36.336999999999996,32.868,38.709
32.156,33.229,34.095,36.671,32.92,38.634
32.113,33.449,34.071,36.996,32.991,38.561
32.07,33.692,34.047,37.306999999999995,33.083,38.49
32.027,33.955999999999996,34.023,37.602,33.196,38.422
31.983,34.236999999999995,33.998000000000005,37.878,33.332,38.356
31.94,34.532,33.972,38.134,33.491,38.293
31.897,34.836,33.946,38.368,33.671,38.232
31.855,35.147,33.918,38.579,33.872,38.173
31.813000000000002,35.46,33.89,38.765,34.093,38.115
31.771,35.771,33.861,38.926,34.330999999999996,38.059
31.729,36.076,33.832,39.062,34.583,38.003
31.688000000000002,36.372,33.803000000000004,39.173,34.848,37.948
31.647,36.655,33.775,39.260999999999996,35.121,37.894
31.607,36.923,33.747,39.326,35.4,37.839
31.569000000000003,37.173,33.719,39.371,35.681,37.784
31.534000000000002,37.404,33.692,39.396,35.961,37.729
31.505,37.615,33.666,39.404,36.236999999999995,37.675
31.485,37.804,33.641,39.397,36.506,37.621
31.476,37.971,33.615,39.376,36.765,37.568000000000005
31.483,38.116,33.591,39.342,37.012,37.516
31.51,38.236999999999995,33.566,39.298,37.245,37.467
31.56,38.335,33.542,39.243,37.463,37.418
31.636,38.412,33.518,39.18,37.663000000000004,37.372
31.741999999999997,38.467,33.494,39.11,37.846,37.327
31.88,38.503,33.471,39.032,38.009,37.285
32.049,38.521,33.45,38.95,38.152,37.245
32.25,38.522,33.429,38.861999999999995,38.275,37.208
32.482,38.507,33.41,38.772,38.378,37.174
32.742,38.479,33.393,38.678000000000004,38.461999999999996,37.141999999999996
33.025,38.439,33.378,38.582,38.525,37.113
33.33,38.388000000000005,33.364000000000004,38.485,38.571,37.086999999999996
33.65,38.327,33.353,38.387,38.598,37.064
33.981,38.258,33.343,38.29,38.61,37.045
34.318000000000005,38.183,33.334,38.193000000000005,38.606,37.03
34.656,38.102,33.326,38.097,38.588,37.019
34.989000000000004,38.016999999999996,33.318000000000005,38.004,38.558,37.012
35.314,37.928000000000004,33.31,37.912,38.516999999999996,37.009
35.626999999999995,37.838,33.301,37.821,38.466,37.009
35.922,37.748000000000005,33.29,37.733000000000004,38.406,37.01
36.199,37.657,33.278,37.645,38.34,37.013000000000005
36.453,37.567,33.264,37.558,38.266999999999996,37.016
36.681999999999995,37.477,33.248000000000005,37.471,38.189,37.018
36.885999999999996,37.388000000000005,33.231,37.385,38.107,37.019
37.064,37.3,33.213,37.297,38.022,37.016999999999996
37.216,37.214,33.194,37.209,37.934,37.012
37.341,37.128,33.174,37.119,37.844,37.004
37.44,37.044000000000004,33.156,37.028,37.753,36.993
37.513000000000005,36.96,33.141,36.935,37.662,36.978
37.562,36.878,33.131,36.84,37.57,36.96
37.586999999999996,36.796,33.128,36.743,37.478,36.939
37.591,36.714,33.135999999999996,36.646,37.385999999999996,36.915
37.575,36.632,33.156,36.549,37.293,36.887
37.542,36.55,33.191,36.453,37.2,36.856
37.493,36.467,33.243,36.357,37.107,36.821
37.431,36.384,33.315,36.263000000000005,37.013000000000005,36.783
37.358000000000004,36.299,33.406,36.172,36.919000000000004,36.743
37.275,36.214,33.516999999999996,36.084,36.825,36.7
37.183,36.128,33.647,36.001,36.731,36.655
37.085,36.042,33.795,35.922,36.638000000000005,36.609
36.98,35.957,33.959,35.85,36.546,36.561
36.868,35.873000000000005,34.135999999999996,35.783,36.455,36.513000000000005
36.751,35.79,34.324,35.722,36.365,36.464
36.628,35.709,34.519,35.669000000000004,36.277,36.414
36.501999999999995,35.631,34.719,35.621,36.192,36.365
36.372,35.555,34.921,35.58,36.109,36.315
36.239000000000004,35.483000000000004,35.12,35.545,36.029,36.265
36.105,35.414,35.314,35.516,35.953,36.214
35.97,35.349000000000004,35.501,35.492,35.881,36.164
35.835,35.29,35.677,35.473,35.812,36.111999999999995
35.701,35.235,35.841,35.459,35.747,36.061
35.568000000000005,35.186,35.99,35.448,35.688,36.008
35.435,35.143,36.123000000000005,35.441,35.633,35.955
35.305,35.106,36.238,35.436,35.584,35.9
35.176,35.075,36.334,35.434,35.54,35.844
35.05,35.05,36.412,35.434,35.501,35.787
34.926,35.029,36.472,35.435,35.468,35.728
34.804,35.014,36.515,35.437,35.44,35.668
34.685,35.003,36.542,35.44,35.417,35.607
34.568000000000005,34.995,36.553000000000004,35.443000000000005,35.399,35.546
34.452,34.991,36.551,35.445,35.385,35.484
34.338,34.99,36.536,35.446999999999996,35.376,35.423
34.227,34.991,36.51,35.448,35.37,35.363
34.12,34.994,36.474000000000004,35.446999999999996,35.368,35.305
34.015,34.997,36.43,35.445,35.37,35.248000000000005
33.915,35.001999999999995,36.376999999999995,35.439,35.374,35.193000000000005
33.82,35.006,36.319,35.431,35.382,35.139
33.729,35.01,36.255,35.419000000000004,35.391,35.088
33.645,35.014,36.187,35.404,35.402,35.039
33.569,35.016999999999996,36.116,35.385,35.414,34.992
33.5,35.018,36.042,35.361,35.426,34.946
33.439,35.019,35.968,35.333,35.439,34.903
33.388000000000005,35.018,35.894,35.3,35.451,34.861999999999995
33.347,35.015,35.82,35.262,35.461999999999996,34.821999999999996
33.315,35.010999999999996,35.748000000000005,35.219,35.472,34.784
33.293,35.003,35.676,35.171,35.48,34.748000000000005
33.282,34.992,35.606,35.119,35.486999999999995,34.711999999999996
33.279,34.978,35.537,35.062,35.491,34.678000000000004
33.286,34.961,35.468,35.003,35.494,34.644
33.302,34.939,35.400999999999996,34.942,35.494,34.611
33.324,34.914,35.335,34.879,35.491,34.578
33.353,34.885,35.27,34.815,35.485,34.545
33.387,34.852,35.205999999999996,34.751,35.475,34.510999999999996
33.425,34.816,35.145,34.687,35.461999999999996,34.478
33.465,34.778,35.086,34.623000000000005,35.446999999999996,34.444
33.506,34.736999999999995,35.029,34.56,35.428000000000004,34.411
33.548,34.694,34.974000000000004,34.497,35.406,34.378
33.589,34.649,34.92,34.436,35.381,34.345
33.63,34.602,34.869,34.376,35.354,34.313
33.668,34.554,34.819,34.317,35.323,34.282
33.704,34.505,34.77,34.259,35.29,34.25
33.736999999999995,34.455999999999996,34.722,34.202,35.255,34.218
33.766,34.405,34.675,34.145,35.217,34.185
33.79,34.353,34.63,34.086999999999996,35.177,34.152
33.81,34.302,34.586999999999996,34.03,35.134,34.118
33.824,34.25,34.545,33.971,35.091,34.084
33.833,34.198,34.506,33.913000000000004,35.046,34.049
33.836999999999996,34.146,34.468,33.854,34.999,34.013000000000005
33.836,34.094,34.433,33.795,34.952,33.978
33.83,34.042,34.400999999999996,33.735,34.903,33.944
33.819,33.991,34.371,33.676,34.854,33.914
33.804,33.941,34.343,33.618,34.803000000000004,33.888000000000005
33.785,33.891,34.319,33.56,34.751999999999995,33.868
33.763000000000005,33.841,34.299,33.501999999999995,34.701,33.856
33.738,33.791,34.282,33.446,34.65,33.854
33.711,33.74,34.269,33.39,34.599000000000004,33.864000000000004
33.681,33.689,34.260999999999996,33.336,34.549,33.889
33.650999999999996,33.638000000000005,34.256,33.283,34.5,33.931
33.619,33.585,34.256,33.232,34.451,33.992
33.586999999999996,33.533,34.26,33.183,34.404,34.075
33.554,33.48,34.266999999999996,33.135999999999996,34.357,34.18
33.52,33.428000000000004,34.278,33.09,34.31,34.309
33.486,33.375,34.292,33.045,34.263000000000005,34.461999999999996
33.452,33.324,34.308,33.001999999999995,34.216,34.64
33.417,33.274,34.327,32.96,34.169000000000004,34.841
33.381,33.224000000000004,34.347,32.919000000000004,34.122,35.064
33.344,33.176,34.367,32.878,34.075,35.308
33.306,33.129,34.388000000000005,32.836999999999996,34.028,35.568000000000005
33.266999999999996,33.082,34.408,32.797,33.981,35.844
33.226,33.036,34.426,32.757,33.935,36.13
33.184,32.992,34.444,32.717,33.889,36.424
33.141,32.946999999999996,34.46,32.678000000000004,33.844,36.721
33.097,32.904,34.476,32.64,33.8,37.019
33.054,32.86,34.49,32.603,33.757,37.314
33.01,32.818000000000005,34.501999999999995,32.566,33.715,37.604
32.966,32.775,34.514,32.531,33.676,37.884
32.923,32.733000000000004,34.523,32.498000000000005,33.637,38.154
32.88,32.692,34.531,32.466,33.601,38.409
32.838,32.652,34.537,32.437,33.565,38.647
32.797,32.613,34.541,32.412,33.531,38.867
32.756,32.575,34.543,32.391999999999996,33.498000000000005,39.068000000000005
32.716,32.539,34.544000000000004,32.379,33.465,39.248000000000005
32.677,32.503,34.542,32.376,33.434,39.407
32.638000000000005,32.468,34.539,32.385999999999996,33.403,39.545
32.599000000000004,32.433,34.533,32.411,33.373000000000005,39.663000000000004
32.56,32.399,34.524,32.457,33.343,39.76
32.522,32.365,34.513000000000005,32.525999999999996,33.312,39.838
32.484,32.330999999999996,34.5,32.621,33.282,39.897
32.446999999999996,32.296,34.484,32.746,33.251,39.939
32.41,32.260999999999996,34.466,32.902,33.219,39.965
32.374,32.225,34.445,33.09,33.187,39.977
32.339,32.189,34.423,33.31,33.155,39.975
32.304,32.154,34.399,33.561,33.123000000000005,39.961
32.269,32.12,34.374,33.841,33.091,39.935
32.234,32.09,34.348,34.147,33.059,39.899
32.2,32.065,34.321999999999996,34.475,33.027,39.854
32.165,32.046,34.295,34.821999999999996,32.995,39.8
32.13,32.036,34.269,35.181,32.964,39.738
32.095,32.038000000000004,34.242,35.547,32.933,39.671
32.06,32.055,34.215,35.916,32.904,39.599000000000004
32.025999999999996,32.089,34.186,36.283,32.876,39.524
31.993000000000002,32.141,34.157,36.644,32.85,39.448
31.959,32.215,34.128,36.995,32.826,39.371
31.926,32.312,34.098,37.333,32.804,39.295
31.892,32.433,34.068000000000005,37.653,32.784,39.218
31.859,32.579,34.038000000000004,37.954,32.765,39.141999999999996
31.826,32.749,34.009,38.234,32.747,39.066
31.796,32.943000000000005,33.981,38.491,32.729,38.99
31.77,33.16,33.952,38.724000000000004,32.711,38.914
31.75,33.397,33.925,38.931,32.694,38.838
31.739,33.654,33.898,39.111999999999995,32.675,38.76
31.738000000000003,33.925,33.871,39.266999999999996,32.656,38.681999999999995
31.752,34.208,33.845,39.396,32.635999999999996,38.605
31.784000000000002,34.499,33.82,39.499,32.615,38.527
31.837,34.795,33.795,39.578,32.593,38.45
31.915,35.09,33.771,39.633,32.57,38.373000000000005
32.02,35.383,33.748000000000005,39.666,32.547,38.295
32.154,35.668,33.727,39.679,32.525999999999996,38.216
32.319,35.942,33.705999999999996,39.673,32.506,38.135999999999996
32.513000000000005,36.204,33.686,39.65,32.491,38.055
32.735,36.449,33.667,39.61,32.483000000000004,37.972
32.985,36.677,33.648,39.556999999999995,32.484,37.888000000000005
33.257,36.884,33.63,39.491,32.496,37.802
33.55,37.071,33.611999999999995,39.414,32.523,37.715
33.857,37.236999999999995,33.595,39.33,32.568000000000005,37.626
34.176,37.382,33.578,39.238,32.631,37.537
34.499,37.505,33.562,39.141999999999996,32.716,37.446999999999996
34.821999999999996,37.608000000000004,33.546,39.042,32.824,37.358000000000004
35.14,37.689,33.531,38.939,32.955,37.271
35.448,37.75,33.515,38.834,33.111,37.186
35.742,37.793,33.499,38.728,33.292,37.103
36.018,37.819,33.483000000000004,38.622,33.496,37.024
36.273,37.829,33.467,38.516,33.723,36.948
36.506,37.826,33.452,38.412,33.971,36.876999999999995
36.715,37.811,33.437,38.31,34.236999999999995,36.809
36.899,37.784,33.422,38.21,34.518,36.746
37.056999999999995,37.749,33.407,38.114000000000004,34.812,36.687
37.191,37.704,33.391999999999996,38.022,35.114000000000004,36.633
37.3,37.653,33.376999999999995,37.933,35.423,36.580999999999996
37.387,37.594,33.361999999999995,37.849000000000004,35.733000000000004,36.533
37.45,37.53,33.348,37.766999999999996,36.043,36.486999999999995
37.494,37.461,33.334,37.689,36.348,36.444
37.519,37.385999999999996,33.323,37.611999999999995,36.646,36.402
37.525999999999996,37.306999999999995,33.315,37.537,36.934,36.361
37.518,37.224000000000004,33.313,37.461999999999996,37.209,36.321
37.495,37.138000000000005,33.318000000000005,37.385999999999996,37.469,36.282
37.459,37.049,33.332,37.31,37.711999999999996,36.245
37.411,36.957,33.358000000000004,37.231,37.937,36.208
37.353,36.864000000000004,33.397,37.15,38.143,36.173
37.286,36.77,33.453,37.067,38.328,36.138000000000005
37.21,36.676,33.525999999999996,36.98,38.493,36.103
37.126999999999995,36.582,33.618,36.891999999999996,38.635999999999996,36.068000000000005
37.036,36.489000000000004,33.729,36.802,38.759,36.032
36.939,36.398,33.86,36.71,38.861,35.997
36.836999999999996,36.308,34.008,36.618,38.943000000000005,35.961
36.729,36.219,34.174,36.525,39.005,35.925
36.617,36.132,34.354,36.431999999999995,39.049,35.889
36.501999999999995,36.046,34.546,36.341,39.076,35.852
36.384,35.961,34.747,36.251,39.086999999999996,35.814
36.263000000000005,35.876999999999995,34.952,36.166,39.084,35.775
36.141,35.795,35.159,36.084,39.067,35.735
36.018,35.715,35.365,36.007,39.039,35.693000000000005
35.894,35.635999999999996,35.566,35.935,38.999,35.650999999999996
35.77,35.556999999999995,35.759,35.867,38.95,35.608000000000004
35.646,35.481,35.942,35.805,38.893,35.564
35.522,35.405,36.111999999999995,35.747,38.828,35.52
35.397,35.332,36.266999999999996,35.694,38.756,35.474000000000004
35.273,35.26,36.407,35.646,38.678000000000004,35.427
35.149,35.191,36.53,35.603,38.594,35.38
35.025999999999996,35.124,36.635,35.564,38.505,35.333
34.903,35.061,36.722,35.529,38.411,35.285
34.782,35.001999999999995,36.791,35.499,38.315,35.236999999999995
34.663000000000004,34.946999999999996,36.842,35.472,38.216,35.188
34.547,34.896,36.876999999999995,35.449,38.116,35.137
34.434,34.849000000000004,36.896,35.429,38.015,35.085
34.324,34.808,36.9,35.412,37.915,35.031
34.22,34.771,36.89,35.397,37.816,34.976
34.121,34.739000000000004,36.867,35.383,37.718,34.92
34.029,34.711,36.833,35.372,37.621,34.863
33.944,34.688,36.788000000000004,35.361,37.525999999999996,34.806999999999995
33.868,34.67,36.734,35.351,37.431999999999995,34.751999999999995
33.8,34.656,36.674,35.341,37.34,34.698
33.742,34.647,36.609,35.330999999999996,37.251,34.645
33.694,34.644,36.539,35.32,37.163000000000004,34.596
33.656,34.645,36.468,35.308,37.077,34.549
33.628,34.652,36.395,35.294000000000004,36.994,34.506
33.61,34.663000000000004,36.321,35.278,36.912,34.467
33.602,34.678000000000004,36.246,35.260999999999996,36.833,34.43
33.605,34.696,36.173,35.241,36.755,34.395
33.617,34.715,36.1,35.219,36.679,34.361999999999995
33.638000000000005,34.734,36.027,35.195,36.605,34.329
33.666,34.754,35.957,35.168,36.533,34.297
33.701,34.773,35.888000000000005,35.138000000000005,36.463,34.266
33.742,34.791,35.82,35.106,36.395,34.234
33.787,34.806999999999995,35.755,35.071,36.33,34.202
33.835,34.821999999999996,35.692,35.034,36.266,34.171
33.885999999999996,34.834,35.63,34.993,36.207,34.14
33.937,34.845,35.569,34.95,36.150999999999996,34.109
33.988,34.852,35.510999999999996,34.903,36.099000000000004,34.078
34.039,34.857,35.454,34.853,36.052,34.048
34.088,34.858000000000004,35.399,34.801,36.01,34.02
34.135,34.855,35.346,34.747,35.974000000000004,33.993
34.18,34.85,35.295,34.69,35.942,33.967
34.223,34.841,35.245,34.632,35.916,33.942
34.263000000000005,34.829,35.198,34.571999999999996,35.895,33.919000000000004
34.299,34.815,35.152,34.512,35.879,33.897
34.330999999999996,34.798,35.108000000000004,34.451,35.868,33.876999999999995
34.359,34.778,35.065,34.389,35.861,33.858000000000004
34.382,34.756,35.024,34.327,35.858000000000004,33.84
34.4,34.731,34.984,34.265,35.858000000000004,33.823
34.413000000000004,34.702,34.944,34.203,35.861999999999995,33.806999999999995
34.419000000000004,34.671,34.906,34.141,35.868,33.791
34.42,34.635999999999996,34.867,34.08,35.876,33.774
34.415,34.597,34.83,34.018,35.885999999999996,33.756
34.405,34.555,34.793,33.957,35.897,33.738
34.389,34.51,34.757,33.895,35.909,33.717
34.367,34.463,34.723,33.833,35.923,33.694
34.341,34.413000000000004,34.692,33.771,35.936,33.67
34.311,34.361999999999995,34.662,33.707,35.948,33.644
34.277,34.309,34.635,33.641999999999996,35.959,33.617
34.239000000000004,34.256,34.611999999999995,33.577,35.968,33.59
34.198,34.203,34.593,33.512,35.974000000000004,33.562
34.155,34.149,34.577,33.446999999999996,35.978,33.535
34.111,34.096,34.566,33.382,35.979,33.508
34.065,34.043,34.561,33.318000000000005,35.976,33.482
34.02,33.992,34.56,33.256,35.97,33.458
33.974000000000004,33.943000000000005,34.563,33.194,35.96,33.434
33.929,33.895,34.571999999999996,33.134,35.946,33.413000000000004
33.885,33.848,34.584,33.076,35.929,33.396
33.842,33.803000000000004,34.6,33.019,35.909,33.384
33.8,33.759,34.618,32.965,35.885999999999996,33.379
33.76,33.717,34.638000000000005,32.912,35.859,33.385
33.72,33.675,34.659,32.861999999999995,35.83,33.404
33.681,33.635,34.681,32.814,35.799,33.438
33.643,33.595,34.703,32.766999999999996,35.765,33.49
33.605,33.555,34.724000000000004,32.723,35.729,33.562
33.567,33.515,34.745,32.68,35.69,33.654
33.528,33.475,34.764,32.639,35.649,33.769
33.49,33.436,34.783,32.599000000000004,35.606,33.907
33.451,33.397,34.8,32.56,35.562,34.067
33.413000000000004,33.358000000000004,34.816,32.522,35.516,34.249
33.374,33.32,34.829,32.485,35.469,34.451
33.336,33.283,34.84,32.448,35.421,34.672
33.298,33.245,34.848,32.411,35.372,34.91
33.260999999999996,33.209,34.854,32.375,35.323,35.161
33.226,33.173,34.858000000000004,32.339,35.273,35.424
33.192,33.137,34.859,32.303000000000004,35.222,35.695
33.159,33.102,34.857,32.266999999999996,35.17,35.971
33.128,33.068000000000005,34.853,32.232,35.118,36.249
33.097,33.034,34.846,32.196999999999996,35.066,36.525
33.068000000000005,33.001,34.836999999999996,32.162,35.012,36.796
33.038000000000004,32.967,34.825,32.128,34.959,37.059
33.009,32.934,34.81,32.094,34.905,37.311
32.979,32.900999999999996,34.794000000000004,32.061,34.851,37.549
32.949,32.868,34.775,32.028,34.796,37.771
32.918,32.834,34.754,31.997,34.742,37.975
32.885999999999996,32.8,34.731,31.965999999999998,34.687,38.16
32.853,32.765,34.707,31.936999999999998,34.633,38.325
32.818000000000005,32.731,34.681999999999995,31.91,34.579,38.469
32.781,32.696999999999996,34.657,31.884,34.525999999999996,38.593
32.743,32.662,34.631,31.86,34.474000000000004,38.696
32.704,32.628,34.606,31.838,34.421,38.778
32.665,32.594,34.580999999999996,31.816999999999997,34.37,38.841
32.626,32.561,34.556,31.796999999999997,34.318000000000005,38.885999999999996
32.59,32.531,34.531,31.778000000000002,34.268,38.914
32.556999999999995,32.503,34.506,31.761,34.217,38.927
32.53,32.481,34.481,31.746,34.168,38.925
32.509,32.465,34.455,31.734,34.12,38.91
32.498000000000005,32.459,34.429,31.726,34.071999999999996,38.884
32.499,32.464,34.402,31.726,34.025999999999996,38.846
32.516,32.484,34.375,31.737,33.981,38.799
32.552,32.52,34.346,31.761,33.937,38.742
32.61,32.576,34.318000000000005,31.802,33.893,38.678000000000004
32.693000000000005,32.652,34.289,31.865,33.85,38.607
32.804,32.75,34.26,31.953000000000003,33.806999999999995,38.531
32.942,32.871,34.232,32.069,33.763000000000005,38.45
33.11,33.015,34.204,32.215,33.72,38.366
33.306,33.181999999999995,34.176,32.394,33.676,38.278
33.529,33.37,34.149,32.605,33.633,38.189
33.777,33.577,34.122,32.85,33.59,38.099000000000004
34.047,33.802,34.096,33.126,33.547,38.008
34.333,34.04,34.071,33.43,33.505,37.918
34.632,34.29,34.047,33.76,33.465,37.829
34.939,34.547,34.024,34.111,33.425,37.74
35.249,34.809,34.001999999999995,34.478,33.388000000000005,37.653
35.558,35.071,33.981,34.858000000000004,33.353,37.567
35.861,35.33,33.961,35.245,33.32,37.481
36.153,35.584,33.941,35.635,33.289,37.396
36.433,35.828,33.921,36.022,33.26,37.311
36.696,36.06,33.903,36.404,33.232,37.228
36.942,36.278,33.885999999999996,36.775999999999996,33.205,37.145
37.166,36.479,33.87,37.133,33.178000000000004,37.062
37.369,36.662,33.854,37.472,33.153,36.981
37.549,36.826,33.839,37.791,33.129,36.900999999999996
37.705,36.972,33.824,38.086,33.105,36.823
37.838,37.098,33.81,38.356,33.080999999999996,36.746
37.949,37.205,33.797,38.599000000000004,33.058,36.671
38.037,37.295,33.784,38.816,33.036,36.596
38.104,37.367,33.772,39.005,33.013000000000005,36.522
38.150999999999996,37.422,33.76,39.167,32.991,36.449
38.178000000000004,37.461,33.748000000000005,39.302,32.969,36.376
38.188,37.486,33.736,39.412,32.948,36.304
38.183,37.495,33.724000000000004,39.496,32.927,36.233000000000004
38.163000000000004,37.492,33.711,39.558,32.907,36.165
38.13,37.477,33.698,39.598,32.887,36.098
38.086999999999996,37.451,33.685,39.617,32.868,36.035
38.033,37.415,33.672,39.617,32.851,35.977
37.971,37.37,33.658,39.601,32.836,35.923
37.899,37.318000000000005,33.645,39.569,32.827,35.874
37.82,37.259,33.632,39.522,32.824,35.83
37.733000000000004,37.193000000000005,33.621,39.464,32.830999999999996,35.792
37.641,37.123000000000005,33.613,39.394,32.85,35.76
37.544000000000004,37.048,33.611,39.314,32.885,35.734
37.443000000000005,36.97,33.615,39.225,32.937,35.714
37.34,36.89,33.628,39.129,33.010999999999996,35.699
37.234,36.806,33.654,39.028,33.107,35.689
37.126999999999995,36.721,33.695,38.922,33.228,35.681999999999995
37.02,36.634,33.753,38.813,33.376,35.679
36.912,36.546,33.83,38.703,33.55,35.679
36.803000000000004,36.457,33.929,38.593,33.75,35.68
36.695,36.367,34.048,38.483000000000004,33.976,35.681999999999995
36.586,36.277,34.189,38.375,34.226,35.684
36.477,36.186,34.349000000000004,38.268,34.497,35.686
36.369,36.096,34.527,38.162,34.787,35.688
36.262,36.006,34.719,38.056999999999995,35.092,35.689
36.154,35.917,34.923,37.953,35.409,35.688
36.046,35.828,35.135,37.851,35.734,35.686
35.939,35.741,35.351,37.75,36.064,35.683
35.830999999999996,35.655,35.567,37.65,36.394,35.678000000000004
35.724000000000004,35.57,35.781,37.551,36.722,35.671
35.618,35.486,35.989000000000004,37.454,37.044000000000004,35.662
35.514,35.403,36.188,37.358000000000004,37.356,35.650999999999996
35.412,35.321999999999996,36.374,37.262,37.656,35.637
35.313,35.242,36.547,37.167,37.94,35.62
35.219,35.164,36.703,37.073,38.208,35.601
35.131,35.089,36.841,36.979,38.455999999999996,35.58
35.05,35.015,36.961999999999996,36.885999999999996,38.683,35.555
34.977,34.945,37.064,36.793,38.889,35.528
34.912,34.876999999999995,37.148,36.7,39.074,35.499
34.857,34.813,37.214,36.608000000000004,39.236999999999995,35.468
34.811,34.753,37.262,36.516999999999996,39.378,35.436
34.775,34.698,37.292,36.426,39.497,35.400999999999996
34.749,34.648,37.306999999999995,36.336999999999996,39.595,35.365
34.732,34.603,37.306999999999995,36.25,39.672,35.328
34.723,34.563,37.293,36.164,39.728,35.289
34.723,34.53,37.268,36.08,39.763000000000005,35.249
34.729,34.501,37.233000000000004,35.998000000000005,39.779,35.208
34.742,34.479,37.19,35.919000000000004,39.775999999999996,35.166
34.759,34.461,37.139,35.843,39.757,35.123000000000005
34.781,34.449,37.083,35.771,39.723,35.079
34.806999999999995,34.442,37.022,35.703,39.675,35.035
34.836,34.439,36.958,35.64,39.616,34.991
34.866,34.441,36.893,35.580999999999996,39.547,34.946
34.898,34.446999999999996,36.826,35.528,39.469,34.899
34.929,34.455999999999996,36.758,35.48,39.384,34.852
34.961,34.468,36.69,35.437,39.293,34.803000000000004
34.991,34.482,36.622,35.4,39.196999999999996,34.751999999999995
35.02,34.498000000000005,36.555,35.367,39.097,34.7
35.047,34.515,36.489000000000004,35.34,38.994,34.646
35.073,34.532,36.424,35.317,38.889,34.591
35.096,34.548,36.361,35.298,38.783,34.535
35.118,34.562,36.299,35.282,38.677,34.477
35.135999999999996,34.574,36.24,35.27,38.571,34.419000000000004
35.152,34.585,36.181999999999995,35.259,38.466,34.361
35.166,34.593,36.126999999999995,35.251,38.363,34.303000000000004
35.177,34.6,36.074,35.244,38.262,34.246
35.186,34.606,36.023,35.236999999999995,38.163000000000004,34.19
35.193000000000005,34.609,35.974000000000004,35.23,38.066,34.134
35.196999999999996,34.611,35.928000000000004,35.222,37.973,34.079
35.199,34.61,35.884,35.214,37.882,34.023
35.198,34.607,35.842,35.205,37.793,33.969
35.193000000000005,34.602,35.802,35.196,37.707,33.915
35.185,34.594,35.764,35.186,37.623000000000005,33.861
35.174,34.583,35.727,35.176,37.54,33.806999999999995
35.16,34.568000000000005,35.692,35.165,37.459,33.754
35.141,34.55,35.658,35.154,37.38,33.701
35.119,34.528,35.625,35.141,37.301,33.649
35.094,34.503,35.593,35.126,37.223,33.597
35.066,34.474000000000004,35.561,35.108000000000004,37.146,33.546
35.035,34.441,35.529,35.088,37.07,33.496
35.001999999999995,34.405,35.498000000000005,35.065,36.996,33.449
34.967,34.367,35.467,35.038000000000004,36.923,33.402
34.931,34.325,35.436,35.007,36.852,33.357
34.894,34.282,35.405,34.973,36.783,33.314
34.855,34.236,35.375,34.936,36.716,33.271
34.815,34.189,35.346,34.896,36.653,33.229
34.773,34.14,35.316,34.852,36.592,33.188
34.73,34.09,35.287,34.806999999999995,36.536,33.147
34.686,34.038000000000004,35.259,34.758,36.484,33.106
34.641,33.985,35.232,34.708,36.437,33.064
34.596,33.931999999999995,35.207,34.655,36.395,33.023
34.551,33.879,35.183,34.601,36.358000000000004,32.982
34.506,33.825,35.161,34.546,36.326,32.941
34.461,33.772,35.141,34.49,36.299,32.9
34.417,33.719,35.124,34.431999999999995,36.278,32.861999999999995
34.374,33.667,35.11,34.374,36.260999999999996,32.826
34.332,33.616,35.099000000000004,34.316,36.248000000000005,32.794000000000004
34.29,33.565,35.09,34.258,36.239000000000004,32.766999999999996
34.25,33.515,35.085,34.199,36.233000000000004,32.749
34.211,33.465,35.083,34.14,36.231,32.741
34.173,33.416,35.083,34.080999999999996,36.231,32.747
34.135999999999996,33.366,35.085,34.022,36.234,32.77
34.099000000000004,33.317,35.089,33.963,36.239000000000004,32.812
34.064,33.269,35.094,33.903,36.247,32.876
34.029,33.223,35.1,33.844,36.256,32.961999999999996
33.995,33.178000000000004,35.106,33.784,36.266999999999996,33.074
33.961,33.134,35.113,33.725,36.28,33.21
33.928000000000004,33.092,35.119,33.665,36.292,33.372
33.895,33.051,35.125,33.606,36.305,33.556999999999995
33.863,33.013000000000005,35.13,33.547,36.317,33.766
33.832,32.977,35.134,33.488,36.327,33.993
33.801,32.944,35.135999999999996,33.429,36.336,34.236999999999995
33.77,32.912,35.135999999999996,33.371,36.344,34.494
33.739000000000004,32.883,35.135,33.312,36.35,34.759
33.709,32.854,35.131,33.255,36.355,35.027
33.68,32.827,35.126,33.198,36.358000000000004,35.296
33.652,32.801,35.119,33.143,36.36,35.56
33.625,32.775,35.11,33.089,36.36,35.818000000000005
33.602,32.748000000000005,35.101,33.036,36.359,36.065
33.585,32.72,35.09,32.985,36.355,36.3
33.577,32.691,35.078,32.935,36.349000000000004,36.521
33.580999999999996,32.661,35.065,32.887,36.34,36.726
33.601,32.629,35.05,32.841,36.328,36.914
33.641,32.597,35.034,32.798,36.311,37.085
33.704,32.563,35.016999999999996,32.756,36.29,37.236999999999995
33.792,32.529,34.999,32.717,36.264,37.371
33.909,32.495,34.979,32.679,36.233000000000004,37.486999999999995
34.054,32.46,34.959,32.643,36.198,37.585
34.23,32.426,34.937,32.607,36.159,37.665
34.435,32.393,34.914,32.571999999999996,36.115,37.727
34.667,32.361,34.89,32.538000000000004,36.068000000000005,37.774
34.924,32.333,34.865,32.503,36.019,37.804
35.203,32.31,34.84,32.469,35.967,37.82
35.499,32.294000000000004,34.815,32.434,35.913000000000004,37.821
35.809,32.287,34.789,32.4,35.857,37.809
36.126999999999995,32.292,34.763000000000005,32.366,35.8,37.785
36.448,32.31,34.738,32.332,35.741,37.75
36.768,32.344,34.714,32.298,35.681999999999995,37.704
37.083,32.396,34.69,32.264,35.621,37.65
37.388000000000005,32.469,34.666,32.231,35.56,37.589
37.679,32.563,34.641999999999996,32.198,35.498000000000005,37.52
37.953,32.679,34.618,32.165,35.436,37.446
38.207,32.819,34.593,32.133,35.375,37.368
38.439,32.981,34.569,32.101,35.314,37.287
38.647,33.166,34.543,32.069,35.254,37.203
38.832,33.372,34.518,32.039,35.194,37.119
38.992,33.597,34.491,32.009,35.135,37.034
39.128,33.839,34.464,31.980999999999998,35.078,36.95
39.24,34.093,34.437,31.953000000000003,35.023,36.867
39.329,34.357,34.408,31.925,34.969,36.784
39.396,34.626999999999995,34.38,31.899,34.916,36.702
39.441,34.899,34.351,31.872,34.865,36.62
39.467,35.17,34.323,31.846,34.814,36.538000000000004
39.475,35.435,34.295,31.819000000000003,34.764,36.455
39.466,35.693000000000005,34.266999999999996,31.793000000000003,34.715,36.371
39.442,35.94,34.239000000000004,31.767,34.668,36.286
39.404,36.173,34.211999999999996,31.741,34.621,36.2
39.354,36.39,34.184,31.715,34.575,36.111999999999995
39.294000000000004,36.59,34.157,31.69,34.531,36.023
39.226,36.77,34.128,31.665,34.489000000000004,35.931999999999995
39.150999999999996,36.931,34.099000000000004,31.642,34.446999999999996,35.841
39.071,37.071999999999996,34.07,31.622,34.408,35.748000000000005
38.985,37.192,34.039,31.605,34.369,35.656
38.895,37.291,34.008,31.595,34.333,35.565
38.802,37.372,33.975,31.594,34.297,35.477
38.705,37.433,33.941,31.604,34.264,35.391999999999996
38.605,37.476,33.906,31.63,34.232,35.312
38.501999999999995,37.503,33.87,31.675,34.2,35.236999999999995
38.397,37.514,33.835,31.741999999999997,34.169000000000004,35.167
38.29,37.51,33.8,31.836,34.138000000000005,35.104
38.181,37.494,33.766,31.956999999999997,34.105,35.047
38.071,37.466,33.733000000000004,32.109,34.071999999999996,34.997
37.96,37.429,33.702,32.293,34.036,34.955
37.849000000000004,37.383,33.672,32.508,34.0,34.919000000000004
37.738,37.329,33.645,32.754,33.963,34.89
37.626999999999995,37.271,33.62,33.029,33.925,34.869
37.516,37.207,33.598,33.330999999999996,33.885999999999996,34.855
37.406,37.138000000000005,33.579,33.655,33.847,34.848
37.296,37.066,33.563,33.998000000000005,33.808,34.846
37.188,36.99,33.55,34.356,33.769,34.85
37.08,36.912,33.541,34.724000000000004,33.731,34.859
36.974000000000004,36.832,33.536,35.098,33.694,34.874
36.869,36.751,33.537,35.472,33.658,34.891999999999996
36.766999999999996,36.67,33.545,35.843,33.624,34.914
36.668,36.588,33.564,36.205999999999996,33.593,34.939
36.573,36.507,33.594,36.558,33.563,34.965
36.481,36.428000000000004,33.639,36.894,33.537,34.991
36.394,36.349000000000004,33.701,37.213,33.513000000000005,35.018
36.313,36.273,33.782,37.51,33.492,35.044000000000004
36.236999999999995,36.198,33.885,37.786,33.476,35.07
36.168,36.125,34.01,38.036,33.466,35.095
36.105,36.054,34.158,38.260999999999996,33.464,35.119
36.049,35.985,34.327,38.46,33.473,35.141999999999996
35.999,35.917,34.516999999999996,38.634,33.496,35.164
35.955999999999996,35.851,34.725,38.781,33.537,35.186
35.92,35.787,34.949,38.904,33.599000000000004,35.205999999999996
35.891,35.724000000000004,35.187,39.003,33.683,35.224000000000004
35.869,35.662,35.433,39.079,33.794000000000004,35.239000000000004
35.854,35.601,35.685,39.135,33.931,35.251999999999995
35.845,35.541,35.938,39.17,34.097,35.260999999999996
35.842,35.482,36.188,39.186,34.291,35.265
35.845,35.425,36.431999999999995,39.185,34.512,35.265
35.854,35.368,36.666,39.169000000000004,34.759,35.260999999999996
35.868,35.314,36.888000000000005,39.138000000000005,35.03,35.253
35.885999999999996,35.260999999999996,37.094,39.095,35.321999999999996,35.241
35.908,35.211,37.284,39.04,35.63,35.226
35.933,35.163000000000004,37.455,38.975,35.952,35.207
35.96,35.119,37.607,38.902,36.283,35.186
35.989000000000004,35.077,37.739000000000004,38.821,36.62,35.162
36.018,35.039,37.849000000000004,38.734,36.959,35.135
36.046,35.005,37.939,38.641999999999996,37.295,35.106
36.071999999999996,34.975,38.009,38.545,37.626,35.076
36.095,34.949,38.06,38.445,37.948,35.045
36.115,34.927,38.094,38.343,38.257,35.013000000000005
36.131,34.909,38.11,38.24,38.551,34.981
36.143,34.894,38.111,38.137,38.827,34.948
36.150999999999996,34.883,38.098,38.034,39.084,34.915
36.154,34.874,38.07,37.931999999999995,39.319,34.882
36.152,34.868,38.032,37.830999999999996,39.533,34.848
36.146,34.865,37.983000000000004,37.732,39.724000000000004,34.813
36.135,34.865,37.925,37.634,39.891,34.775999999999996
36.121,34.866,37.86,37.539,40.035,34.738
36.102,34.869,37.789,37.445,40.156,34.698
36.078,34.873000000000005,37.711999999999996,37.354,40.254,34.656
36.051,34.879,37.63,37.263000000000005,40.33,34.611
36.02,34.885999999999996,37.544000000000004,37.174,40.384,34.565
35.985,34.893,37.455,37.086,40.417,34.516999999999996
35.946999999999996,34.9,37.364000000000004,36.997,40.431,34.468
35.906,34.908,37.271,36.908,40.427,34.419000000000004
35.861999999999995,34.915,37.176,36.818000000000005,40.406,34.371
35.814,34.921,37.082,36.727,40.371,34.323
35.765,34.927,36.986999999999995,36.634,40.324,34.277
35.713,34.931,36.894,36.541,40.266,34.233000000000004
35.659,34.933,36.802,36.446,40.199,34.19
35.604,34.933,36.714,36.352,40.125,34.149
35.547,34.931,36.628,36.258,40.045,34.109
35.49,34.926,36.546,36.165,39.96,34.07
35.433,34.919000000000004,36.467,36.075,39.872,34.032
35.375,34.909,36.391999999999996,35.988,39.782,33.995
35.319,34.897,36.321999999999996,35.906,39.689,33.96
35.263000000000005,34.881,36.257,35.829,39.596,33.927
35.208,34.861999999999995,36.195,35.757,39.501999999999995,33.895
35.154,34.84,36.139,35.691,39.406,33.864000000000004
35.102,34.815,36.086,35.631,39.31,33.833
35.052,34.786,36.036,35.577,39.211999999999996,33.802
35.003,34.754,35.989000000000004,35.529,39.114000000000004,33.77
34.955999999999996,34.72,35.944,35.486,39.015,33.738
34.91,34.683,35.900999999999996,35.449,38.916,33.705999999999996
34.865,34.643,35.859,35.417,38.817,33.675
34.821,34.602,35.818000000000005,35.389,38.718,33.644
34.778,34.558,35.777,35.366,38.619,33.613
34.735,34.514,35.738,35.347,38.521,33.580999999999996
34.693000000000005,34.469,35.699,35.330999999999996,38.424,33.549
34.65,34.423,35.66,35.319,38.327,33.515
34.608000000000004,34.376,35.623000000000005,35.31,38.23,33.48
34.565,34.328,35.586999999999996,35.304,38.132,33.444
34.523,34.281,35.553000000000004,35.299,38.035,33.408
34.48,34.234,35.521,35.297,37.937,33.372
34.436,34.186,35.493,35.296,37.84,33.336999999999996
34.393,34.14,35.469,35.295,37.743,33.305
34.348,34.093,35.45,35.296,37.647,33.278
34.304,34.047,35.437,35.296,37.552,33.258
34.26,34.001999999999995,35.43,35.297,37.458,33.248000000000005
34.215,33.957,35.431,35.298,37.367,33.25
34.171,33.914,35.44,35.298,37.277,33.268
34.126,33.872,35.455,35.297,37.19,33.304
34.082,33.830999999999996,35.477,35.295,37.106,33.361
34.038000000000004,33.791,35.505,35.292,37.025,33.441
33.996,33.751,35.537,35.287,36.948,33.545
33.955,33.711,35.573,35.281,36.874,33.673
33.918,33.671,35.611,35.273,36.805,33.825
33.885999999999996,33.631,35.65,35.263000000000005,36.741,34.0
33.863,33.591,35.689,35.251999999999995,36.681999999999995,34.198
33.85,33.55,35.727,35.239000000000004,36.628,34.414
33.852,33.508,35.764,35.225,36.579,34.648
33.873000000000005,33.465,35.799,35.209,36.535,34.897
33.918,33.421,35.830999999999996,35.191,36.495,35.158
33.989000000000004,33.376999999999995,35.861,35.17,36.46,35.426
34.09,33.332,35.887,35.148,36.431,35.7
34.224000000000004,33.288000000000004,35.91,35.123000000000005,36.406,35.974000000000004
34.39,33.243,35.928000000000004,35.095,36.385,36.247
34.591,33.199,35.941,35.065,36.368,36.516
34.824,33.156,35.95,35.031,36.355,36.775999999999996
35.088,33.113,35.955,34.995,36.346,37.028
35.379,33.071,35.955,34.955,36.339,37.266999999999996
35.695,33.031,35.952,34.912,36.333,37.491
36.031,32.991,35.946,34.866,36.329,37.699
36.383,32.954,35.936,34.815,36.325,37.89
36.745,32.917,35.924,34.762,36.321,38.062
37.111999999999995,32.882,35.91,34.704,36.315,38.215
37.481,32.848,35.894,34.645,36.308,38.347
37.844,32.814,35.876,34.583,36.298,38.46
38.2,32.782,35.856,34.52,36.285,38.553000000000004
38.543,32.749,35.835,34.455,36.269,38.626999999999995
38.869,32.717,35.811,34.39,36.248000000000005,38.683
39.176,32.687,35.786,34.326,36.225,38.724000000000004
39.461999999999996,32.658,35.759,34.260999999999996,36.196999999999996,38.749
39.724000000000004,32.632,35.73,34.198,36.167,38.760999999999996
39.961999999999996,32.611,35.7,34.135,36.134,38.76
40.175,32.596,35.668,34.073,36.098,38.748000000000005
40.363,32.589,35.634,34.013000000000005,36.06,38.725
40.525,32.594,35.598,33.954,36.019,38.693000000000005
40.662,32.613,35.559,33.896,35.977,38.653
40.775,32.648,35.519,33.838,35.934,38.605
40.864000000000004,32.7,35.478,33.782,35.889,38.552
40.93,32.772,35.436,33.726,35.843,38.492
40.974,32.864000000000004,35.395,33.671,35.796,38.429
40.998999999999995,32.978,35.353,33.616,35.748000000000005,38.361999999999995
41.005,33.113,35.311,33.563,35.696999999999996,38.291
40.995,33.269,35.271,33.51,35.645,38.218
40.97,33.445,35.231,33.459,35.59,38.143
40.931,33.639,35.193000000000005,33.41,35.533,38.066
40.881,33.849000000000004,35.157,33.363,35.473,37.988
40.821,34.073,35.123000000000005,33.318000000000005,35.412,37.909
40.751999999999995,34.306,35.091,33.275999999999996,35.35,37.83
40.678000000000004,34.546,35.06,33.238,35.286,37.751
40.598,34.789,35.031,33.204,35.221,37.674
40.514,35.032,35.004,33.174,35.156,37.599000000000004
40.426,35.272,34.976,33.147,35.09,37.525
40.335,35.505,34.95,33.125,35.025,37.453
40.242,35.729,34.923,33.106,34.959,37.381
40.146,35.941,34.897,33.089,34.895,37.311
40.049,36.139,34.871,33.073,34.83,37.24
39.951,36.32,34.845,33.059,34.765,37.169000000000004
39.852,36.484,34.82,33.045,34.701,37.097
39.753,36.63,34.795,33.03,34.635999999999996,37.024
39.653,36.755,34.771,33.013000000000005,34.571999999999996,36.949
39.554,36.861,34.748000000000005,32.993,34.507,36.874
39.455999999999996,36.948,34.724000000000004,32.97,34.443000000000005,36.797
39.358000000000004,37.016999999999996,34.7,32.944,34.379,36.719
39.26,37.068000000000005,34.675,32.914,34.317,36.639
39.163000000000004,37.102,34.649,32.881,34.256,36.559
39.066,37.121,34.621,32.845,34.196,36.478
38.97,37.126,34.593,32.806,34.139,36.397
38.874,37.117,34.563,32.765,34.084,36.318000000000005
38.778,37.098,34.533,32.722,34.032,36.241
38.681999999999995,37.068000000000005,34.503,32.678000000000004,33.983000000000004,36.168
38.586999999999996,37.03,34.474000000000004,32.634,33.935,36.099000000000004
38.493,36.984,34.444,32.589,33.889,36.035
38.400999999999996,36.931999999999995,34.416,32.546,33.844,35.977
38.311,36.874,34.388000000000005,32.504,33.799,35.924
38.224000000000004,36.811,34.361999999999995,32.465,33.756,35.876999999999995
38.141,36.744,34.336,32.427,33.711999999999996,35.835
38.062,36.673,34.311,32.391,33.669000000000004,35.8
37.988,36.601,34.286,32.357,33.625,35.771
37.92,36.527,34.263000000000005,32.324,33.583,35.746
37.857,36.454,34.24,32.292,33.54,35.726
37.8,36.381,34.219,32.26,33.498000000000005,35.711
37.748000000000005,36.309,34.201,32.228,33.457,35.698
37.703,36.239000000000004,34.186,32.195,33.417,35.688
37.664,36.171,34.175,32.161,33.376999999999995,35.68
37.63,36.105,34.168,32.126999999999995,33.339,35.673
37.602,36.04,34.169000000000004,32.092,33.301,35.667
37.58,35.977,34.177,32.056999999999995,33.264,35.662
37.562,35.916,34.196,32.023,33.229,35.658
37.548,35.856,34.227,31.99,33.196999999999996,35.653
37.539,35.798,34.274,31.959,33.166,35.648
37.533,35.74,34.339,31.930999999999997,33.138000000000005,35.641999999999996
37.531,35.681999999999995,34.424,31.906999999999996,33.114000000000004,35.634
37.53,35.624,34.529,31.89,33.094,35.625
37.531,35.566,34.656,31.881,33.08,35.614000000000004
37.533,35.508,34.804,31.881999999999998,33.074,35.601
37.534,35.449,34.971,31.898000000000003,33.079,35.585
37.535,35.39,35.157,31.930999999999997,33.097,35.567
37.536,35.330999999999996,35.358000000000004,31.985,33.131,35.546
37.535,35.271,35.571999999999996,32.063,33.185,35.522
37.534,35.211,35.797,32.168,33.259,35.495
37.533,35.152,36.028,32.301,33.357,35.464
37.531,35.094,36.260999999999996,32.464,33.48,35.431
37.53,35.038000000000004,36.494,32.657,33.628,35.395
37.528,34.985,36.721,32.881,33.802,35.357
37.525,34.933,36.94,33.134,34.003,35.317
37.522,34.885,37.148,33.413000000000004,34.228,35.275999999999996
37.518,34.84,37.342,33.716,34.477,35.234
37.512,34.798,37.52,34.039,34.746,35.191
37.503,34.759,37.68,34.38,35.034,35.148
37.492,34.725,37.821,34.733000000000004,35.336999999999996,35.106
37.478,34.694,37.942,35.095,35.653,35.063
37.459,34.669000000000004,38.043,35.461,35.976,35.02
37.436,34.647,38.125,35.827,36.304,34.976
37.408,34.629,38.189,36.189,36.632,34.93
37.375,34.616,38.234,36.542,36.955,34.883
37.336999999999996,34.605,38.263000000000005,36.884,37.271,34.835
37.295,34.598,38.277,37.211999999999996,37.575,34.785
37.249,34.594,38.275999999999996,37.521,37.864000000000004,34.734
37.2,34.592,38.263000000000005,37.81,38.135,34.681999999999995
37.148,34.592,38.238,38.077,38.387,34.628
37.094,34.594,38.203,38.319,38.618,34.573
37.037,34.597,38.159,38.536,38.826,34.516999999999996
36.979,34.602,38.107,38.727,39.009,34.459
36.919000000000004,34.608000000000004,38.048,38.891999999999996,39.169000000000004,34.400999999999996
36.858000000000004,34.616,37.985,39.032,39.304,34.342
36.796,34.625,37.917,39.147,39.414,34.283
36.733000000000004,34.634,37.846,39.236999999999995,39.501999999999995,34.225
36.67,34.643,37.774,39.305,39.566,34.168
36.607,34.652,37.7,39.352,39.609,34.113
36.543,34.659,37.625,39.378,39.632,34.059
36.48,34.665,37.55,39.385999999999996,39.635,34.007
36.415,34.67,37.475,39.376,39.621,33.957
36.351,34.673,37.400999999999996,39.352,39.592,33.907
36.286,34.673,37.328,39.314,39.548,33.859
36.221,34.671,37.256,39.264,39.492,33.811
36.157,34.666,37.186,39.203,39.424,33.763000000000005
36.093,34.659,37.118,39.134,39.348,33.716
36.031,34.650999999999996,37.052,39.056999999999995,39.264,33.669000000000004
35.969,34.64,36.989000000000004,38.973,39.173,33.623000000000005
35.908,34.626,36.928000000000004,38.884,39.078,33.576
35.848,34.61,36.87,38.791,38.978,33.529
35.789,34.592,36.815,38.694,38.874,33.482
35.731,34.57,36.762,38.594,38.766999999999996,33.435
35.674,34.546,36.711,38.492,38.659,33.388000000000005
35.617,34.518,36.661,38.389,38.549,33.342
35.562,34.486,36.613,38.284,38.44,33.295
35.507,34.452,36.565,38.18,38.33,33.249
35.452,34.415,36.516999999999996,38.075,38.222,33.204
35.397,34.375,36.469,37.97,38.114000000000004,33.159
35.342,34.332,36.422,37.867,38.008,33.114000000000004
35.286,34.288000000000004,36.376,37.764,37.904,33.07
35.231,34.242,36.332,37.663000000000004,37.801,33.025999999999996
35.177,34.195,36.289,37.564,37.698,32.983000000000004
35.123000000000005,34.148,36.25,37.467,37.597,32.94
35.07,34.1,36.213,37.372,37.497,32.898
35.02,34.051,36.179,37.279,37.397,32.859
34.973,34.003,36.147,37.188,37.298,32.824
34.931,33.955,36.119,37.099000000000004,37.2,32.794000000000004
34.896,33.907,36.094,37.01,37.103,32.773
34.871,33.859,36.071999999999996,36.923,37.007,32.760999999999996
34.858000000000004,33.812,36.053000000000004,36.835,36.913000000000004,32.763000000000005
34.863,33.764,36.037,36.748000000000005,36.821,32.78
34.887,33.716,36.024,36.66,36.73,32.815
34.936,33.667,36.013000000000005,36.571,36.641,32.869
35.012,33.619,36.005,36.482,36.555,32.943000000000005
35.118,33.57,35.999,36.393,36.472,33.039
35.255,33.521,35.995,36.304,36.393,33.158
35.425,33.472,35.992,36.216,36.319,33.3
35.626,33.423,35.991,36.129,36.249,33.461999999999996
35.858000000000004,33.375,35.991,36.045,36.185,33.643
36.119,33.327,35.992,35.963,36.126999999999995,33.841
36.404,33.279,35.996,35.885,36.074,34.054
36.711,33.233000000000004,36.001,35.81,36.027,34.275999999999996
37.035,33.188,36.009,35.74,35.986999999999995,34.507
37.372,33.144,36.018,35.676,35.953,34.742
37.717,33.103,36.028,35.618,35.924,34.978
38.065,33.064,36.038000000000004,35.566,35.902,35.211999999999996
38.414,33.027,36.047,35.521,35.885,35.442
38.757,32.992,36.053000000000004,35.483000000000004,35.873000000000005,35.665
39.09,32.959,36.056999999999995,35.451,35.867,35.876999999999995
39.411,32.927,36.059,35.427,35.865,36.078
39.714,32.897,36.059,35.409,35.868,36.265
39.997,32.868,36.056999999999995,35.398,35.874,36.436
40.258,32.839,36.054,35.391999999999996,35.883,36.591
40.495,32.811,36.05,35.391,35.895,36.727
40.705999999999996,32.782,36.047,35.395,35.909,36.846
40.891,32.754,36.044000000000004,35.402,35.924,36.946
41.048,32.725,36.042,35.412,35.94,37.028
41.178999999999995,32.696,36.041,35.424,35.955,37.092
41.284,32.667,36.041,35.436,35.97,37.14
41.363,32.639,36.04,35.449,35.985,37.17
41.418,32.611,36.039,35.461999999999996,35.997,37.186
41.45,32.585,36.035,35.473,36.008,37.188
41.461999999999996,32.562,36.028,35.483000000000004,36.016,37.177
41.455,32.543,36.018,35.49,36.021,37.154
41.431000000000004,32.53,36.003,35.496,36.023,37.122
41.391999999999996,32.525,35.984,35.499,36.02,37.080999999999996
41.34,32.529,35.963,35.5,36.013000000000005,37.034
41.276,32.547,35.938,35.497,36.001999999999995,36.98
41.202,32.579,35.911,35.491,35.986,36.922
41.119,32.629,35.883,35.481,35.967,36.86
41.028999999999996,32.696999999999996,35.854,35.468,35.943000000000005,36.797
40.933,32.785,35.824,35.452,35.915,36.733000000000004
40.832,32.896,35.794000000000004,35.433,35.883,36.669000000000004
40.726,33.027,35.764,35.41,35.848,36.605
40.618,33.181,35.734,35.385,35.811,36.541
40.508,33.353,35.704,35.356,35.771,36.478
40.398,33.544000000000004,35.675,35.324,35.729,36.414
40.287,33.749,35.644,35.288000000000004,35.684,36.351
40.178000000000004,33.967,35.613,35.25,35.638000000000005,36.287
40.07,34.194,35.580999999999996,35.208,35.591,36.223
39.965,34.427,35.548,35.163000000000004,35.542,36.16
39.861999999999995,34.663000000000004,35.513000000000005,35.114000000000004,35.492,36.096
39.762,34.897,35.478,35.062,35.441,36.033
39.665,35.129,35.442,35.008,35.39,35.97
39.571,35.353,35.406,34.951,35.336999999999996,35.907
39.479,35.568000000000005,35.369,34.894,35.285,35.844
39.39,35.77,35.330999999999996,34.836,35.232,35.781
39.302,35.959,35.293,34.778,35.179,35.717
39.216,36.132,35.255,34.72,35.126,35.653
39.131,36.288000000000004,35.218,34.661,35.071999999999996,35.588
39.047,36.426,35.181999999999995,34.603,35.016999999999996,35.522
38.964,36.545,35.148,34.544000000000004,34.961999999999996,35.457
38.884,36.647,35.115,34.485,34.907,35.391
38.805,36.73,35.083,34.426,34.851,35.326
38.728,36.794000000000004,35.053000000000004,34.368,34.794000000000004,35.260999999999996
38.654,36.841,35.023,34.309,34.736999999999995,35.196
38.584,36.872,34.994,34.251,34.68,35.13
38.516,36.888000000000005,34.965,34.193000000000005,34.623000000000005,35.065
38.452,36.889,34.935,34.135,34.566,35.001
38.391,36.876999999999995,34.906,34.078,34.508,34.939
38.333,36.854,34.875,34.022,34.451,34.878
38.28,36.82,34.844,33.967,34.394,34.821
38.23,36.778,34.812,33.913000000000004,34.336999999999996,34.766
38.186,36.729,34.78,33.86,34.281,34.715
38.148,36.672,34.747,33.806999999999995,34.224000000000004,34.668
38.115,36.611,34.714,33.755,34.169000000000004,34.624
38.086999999999996,36.546,34.679,33.704,34.113,34.585
38.065,36.477,34.644,33.653,34.058,34.551
38.049,36.406,34.609,33.602,34.003,34.52
38.039,36.333,34.573,33.552,33.949,34.495
38.033,36.259,34.538000000000004,33.504,33.895,34.474000000000004
38.031,36.185,34.503,33.455999999999996,33.842,34.458
38.033,36.111,34.468,33.41,33.791,34.446
38.037,36.037,34.435,33.365,33.74,34.439
38.043,35.965,34.405,33.32,33.691,34.436
38.051,35.893,34.378,33.275,33.645,34.436
38.058,35.821999999999996,34.358000000000004,33.231,33.6,34.44
38.064,35.753,34.345,33.187,33.558,34.446999999999996
38.069,35.684,34.342,33.144,33.516,34.455999999999996
38.07,35.617,34.351,33.101,33.475,34.467
38.068000000000005,35.55,34.375,33.06,33.435,34.478
38.061,35.484,34.416,33.019,33.395,34.49
38.05,35.419000000000004,34.475,32.98,33.356,34.501999999999995
38.035,35.355,34.554,32.941,33.319,34.513000000000005
38.015,35.29,34.654,32.903,33.285,34.522
37.99,35.226,34.774,32.865,33.257,34.53
37.961999999999996,35.162,34.914,32.828,33.236999999999995,34.535
37.928000000000004,35.098,35.071999999999996,32.792,33.227,34.537
37.89,35.035,35.246,32.756,33.232,34.535
37.848,34.971,35.433,32.721,33.255,34.529
37.801,34.908,35.629,32.686,33.299,34.519
37.751,34.845,35.830999999999996,32.653,33.367,34.505
37.696,34.782,36.034,32.62,33.461,34.486
37.637,34.72,36.236,32.589,33.583,34.463
37.576,34.661,36.433,32.558,33.733000000000004,34.436
37.510999999999996,34.603,36.623000000000005,32.529,33.913000000000004,34.406
37.444,34.549,36.803000000000004,32.501,34.12,34.374
37.375,34.499,36.97,32.473,34.354,34.338
37.304,34.455,37.124,32.446,34.611,34.3
37.232,34.415,37.262,32.42,34.888000000000005,34.259
37.159,34.382,37.385,32.395,35.181999999999995,34.216
37.084,34.354,37.491,32.371,35.488,34.171
37.007,34.332,37.580999999999996,32.347,35.803000000000004,34.123000000000005
36.929,34.315,37.653,32.324,36.122,34.074
36.85,34.303000000000004,37.709,32.302,36.441,34.024
36.769,34.294000000000004,37.75,32.28,36.756,33.971
36.687,34.29,37.775,32.258,37.064,33.918
36.604,34.288000000000004,37.787,32.236999999999995,37.361,33.863
36.521,34.288000000000004,37.787,32.215,37.643,33.808
36.436,34.29,37.777,32.194,37.909,33.751999999999995
36.351,34.294000000000004,37.759,32.173,38.156,33.696999999999996
36.266,34.299,37.735,32.153,38.382,33.641
36.18,34.304,37.705,32.135,38.586999999999996,33.586
36.094,34.31,37.672,32.12,38.768,33.533
36.008,34.316,37.635,32.11,38.927,33.48
35.922,34.321,37.596,32.108000000000004,39.062,33.428000000000004
35.836999999999996,34.327,37.555,32.116,39.174,33.378
35.753,34.333,37.512,32.138000000000005,39.264,33.328
35.67,34.338,37.466,32.178000000000004,39.330999999999996,33.28
35.588,34.343,37.418,32.24,39.378,33.234
35.507,34.347,37.369,32.326,39.404,33.188
35.429,34.351,37.318000000000005,32.439,39.412,33.143
35.352,34.354,37.265,32.583,39.402,33.099000000000004
35.278,34.355,37.211999999999996,32.759,39.376999999999995,33.056
35.205,34.354,37.158,32.966,39.338,33.014
35.134,34.351,37.105,33.204,39.286,32.972
35.065,34.345,37.053000000000004,33.471,39.222,32.931999999999995
34.998000000000005,34.336999999999996,37.004,33.765,39.147,32.891
34.934,34.326,36.955999999999996,34.080999999999996,39.062,32.85
34.872,34.313,36.912,34.417,38.97,32.806999999999995
34.813,34.297,36.87,34.769,38.872,32.763000000000005
34.755,34.28,36.830999999999996,35.13,38.769,32.717
34.698,34.262,36.796,35.498000000000005,38.661,32.671
34.643,34.242,36.763000000000005,35.867,38.55,32.623000000000005
34.59,34.221,36.733000000000004,36.233000000000004,38.435,32.574
34.537,34.198,36.704,36.592,38.319,32.525
34.484,34.174,36.678000000000004,36.94,38.201,32.476
34.431999999999995,34.149,36.653,37.274,38.083,32.426
34.379,34.122,36.63,37.592,37.966,32.376999999999995
34.327,34.095,36.608000000000004,37.889,37.85,32.329
34.275,34.067,36.586999999999996,38.165,37.736,32.281
34.226,34.039,36.567,38.417,37.625,32.234
34.18,34.01,36.55,38.643,37.518,32.189
34.139,33.98,36.535,38.844,37.415,32.147
34.105,33.949,36.525,39.018,37.314,32.107
34.082,33.918,36.52,39.167,37.217,32.071
34.071999999999996,33.887,36.522,39.29,37.124,32.04
34.078,33.856,36.53,39.389,37.033,32.016
34.105,33.825,36.545,39.464,36.945,32.001
34.156,33.793,36.568000000000005,39.516,36.859,31.996
34.232,33.762,36.598,39.548,36.775999999999996,32.005
34.336999999999996,33.731,36.635,39.56,36.694,32.028
34.471,33.7,36.677,39.554,36.615,32.068000000000005
34.635,33.668,36.726,39.532,36.537,32.126999999999995
34.828,33.635999999999996,36.778,39.495,36.461,32.205
35.049,33.603,36.836,39.445,36.387,32.304
35.295,33.569,36.896,39.383,36.317,32.422
35.564,33.535,36.96,39.31,36.25,32.559
35.852,33.5,37.028,39.229,36.187,32.715
36.155,33.466,37.098,39.139,36.128,32.887
36.468,33.431999999999995,37.172,39.044000000000004,36.073,33.074
36.787,33.398,37.248000000000005,38.943000000000005,36.022,33.274
37.108000000000004,33.365,37.326,38.839,35.975,33.483000000000004
37.425,33.333,37.406,38.732,35.933,33.699
37.734,33.303000000000004,37.486999999999995,38.624,35.895,33.918
38.031,33.274,37.567,38.514,35.863,34.137
38.313,33.246,37.646,38.404,35.835,34.353
38.576,33.219,37.722,38.293,35.812,34.563
38.818000000000005,33.192,37.794000000000004,38.183,35.793,34.764
39.037,33.165,37.86,38.071999999999996,35.78,34.954
39.232,33.138000000000005,37.919000000000004,37.963,35.771,35.132
39.403,33.111,37.969,37.853,35.766999999999996,35.294000000000004
39.548,33.083,38.01,37.744,35.766,35.441
39.668,33.055,38.04,37.635999999999996,35.768,35.57
39.764,33.025999999999996,38.059,37.528,35.774,35.683
39.836999999999996,32.998000000000005,38.067,37.42,35.781,35.778
39.888000000000005,32.97,38.063,37.312,35.791,35.855
39.919000000000004,32.942,38.048,37.204,35.802,35.915
39.931,32.915,38.023,37.095,35.814,35.957
39.925,32.89,37.986,36.986999999999995,35.827,35.984
39.903,32.866,37.94,36.879,35.84,35.996
39.867,32.844,37.885,36.772,35.852,35.995
39.818000000000005,32.827,37.82,36.665,35.863,35.981
39.758,32.815,37.746,36.56,35.872,35.955999999999996
39.689,32.811,37.665,36.455999999999996,35.878,35.922
39.611999999999995,32.816,37.575,36.354,35.881,35.88
39.528,32.833,37.477,36.255,35.879,35.83
39.438,32.863,37.37,36.159,35.873000000000005,35.774
39.344,32.909,37.254,36.066,35.861999999999995,35.714
39.246,32.972,37.128,35.977,35.847,35.649
39.145,33.053000000000004,36.991,35.891999999999996,35.827,35.582
39.041,33.153,36.843,35.81,35.803000000000004,35.512
38.937,33.272,36.683,35.734,35.775999999999996,35.441
38.832,33.41,36.512,35.662,35.745,35.368
38.727,33.566,36.329,35.596,35.711,35.296
38.622,33.736999999999995,36.135999999999996,35.535,35.674,35.224000000000004
38.516999999999996,33.922,35.933,35.481,35.635,35.153
38.412,34.118,35.723,35.433,35.594,35.083
38.308,34.321,35.506,35.391999999999996,35.551,35.014
38.203,34.53,35.285,35.357,35.507,34.946999999999996
38.098,34.741,35.063,35.329,35.461,34.882
37.993,34.95,34.843,35.308,35.414,34.818000000000005
37.888000000000005,35.156,34.626,35.294000000000004,35.364000000000004,34.756
37.783,35.354,34.416,35.285,35.313,34.696
37.679,35.543,34.213,35.282,35.260999999999996,34.635999999999996
37.573,35.721,34.021,35.283,35.207,34.576
37.468,35.885,33.838,35.29,35.152,34.516
37.361999999999995,36.035,33.668,35.299,35.097,34.457
37.256,36.17,33.510999999999996,35.312,35.04,34.397
37.149,36.288000000000004,33.368,35.327,34.984,34.336999999999996
37.043,36.389,33.24,35.343,34.927,34.277
36.937,36.472,33.125,35.359,34.871,34.218
36.830999999999996,36.537,33.024,35.376,34.815,34.159
36.727,36.586,32.935,35.391999999999996,34.759,34.102
36.625,36.617,32.86,35.407,34.704,34.047
36.525,36.633,32.795,35.419000000000004,34.65,33.994
36.427,36.634,32.741,35.429,34.597,33.946
36.333,36.623000000000005,32.696,35.435,34.544000000000004,33.900999999999996
36.243,36.599000000000004,32.659,35.437,34.492,33.86
36.158,36.566,32.629,35.435,34.44,33.824
36.076,36.524,32.605,35.429,34.389,33.793
36.0,36.474000000000004,32.586,35.419000000000004,34.339,33.765
35.929,36.419000000000004,32.57,35.406,34.289,33.741
35.864000000000004,36.358000000000004,32.556999999999995,35.39,34.239000000000004,33.719
35.804,36.292,32.546,35.37,34.19,33.701
35.751,36.224000000000004,32.537,35.349000000000004,34.141,33.685
35.703,36.154,32.53,35.325,34.092,33.672
35.661,36.082,32.524,35.299,34.045,33.662
35.625,36.01,32.52,35.271,33.999,33.654
35.594,35.937,32.516999999999996,35.242,33.954,33.65
35.567,35.865,32.516999999999996,35.211,33.911,33.648
35.544000000000004,35.793,32.521,35.178000000000004,33.869,33.65
35.524,35.722,32.53,35.143,33.828,33.654
35.507,35.650999999999996,32.544000000000004,35.105,33.787,33.66
35.493,35.580999999999996,32.567,35.064,33.747,33.668
35.481,35.512,32.6,35.02,33.705999999999996,33.678000000000004
35.471,35.443000000000005,32.644,34.974000000000004,33.665,33.69
35.461999999999996,35.374,32.702,34.925,33.624,33.703
35.454,35.305,32.775999999999996,34.875,33.583,33.717
35.446999999999996,35.236999999999995,32.868,34.824,33.542,33.733000000000004
35.44,35.17,32.978,34.771,33.503,33.749
35.434,35.105,33.107,34.717,33.465,33.765
35.426,35.041,33.256,34.662,33.43,33.782
35.416,34.978,33.422,34.607,33.399,33.798
35.405,34.918,33.605,34.551,33.372,33.812
35.39,34.859,33.801,34.495,33.353,33.824
35.373000000000005,34.802,34.008,34.44,33.342,33.833
35.353,34.746,34.222,34.384,33.343,33.839
35.33,34.692,34.442,34.328,33.357,33.84
35.303000000000004,34.638000000000005,34.662,34.272,33.388000000000005,33.838
35.272,34.586,34.881,34.215,33.439,33.83
35.239000000000004,34.535,35.096,34.158,33.510999999999996,33.819
35.201,34.486,35.302,34.1,33.607,33.802
35.162,34.439,35.497,34.041,33.728,33.781
35.119,34.394,35.679,33.982,33.876,33.756
35.075,34.351,35.846,33.923,34.05,33.727
35.029,34.312,35.996,33.864000000000004,34.249,33.694
34.981,34.277,36.126999999999995,33.806,34.471,33.658
34.931,34.246,36.238,33.748000000000005,34.715,33.62
34.879,34.219,36.329,33.69,34.977,33.580999999999996
34.825,34.196999999999996,36.397,33.633,35.253,33.54
34.77,34.18,36.445,33.577,35.541,33.498000000000005
34.713,34.168,36.472,33.521,35.836,33.455
34.656,34.161,36.479,33.466,36.134,33.411
34.598,34.159,36.467,33.411,36.431999999999995,33.366
34.54,34.161,36.438,33.357,36.724000000000004,33.321
34.482,34.166,36.393,33.303000000000004,37.009,33.275
34.424,34.175,36.335,33.251,37.283,33.228
34.367,34.186,36.264,33.199,37.542,33.181
34.311,34.198,36.185,33.149,37.784,33.134
34.254,34.213,36.097,33.101,38.006,33.086999999999996
34.198,34.228,36.001999999999995,33.054,38.208,33.039
34.14,34.244,35.900999999999996,33.01,38.387,32.991
34.080999999999996,34.260999999999996,35.797,32.967,38.544000000000004,32.942
34.021,34.278,35.688,32.925,38.676,32.893
33.96,34.295,35.576,32.885,38.786,32.844
33.897,34.312,35.461999999999996,32.846,38.872,32.795
33.834,34.328,35.346,32.806999999999995,38.936,32.746
33.77,34.343,35.227,32.768,38.978,32.698
33.705999999999996,34.356,35.107,32.731,39.001,32.650999999999996
33.643,34.367,34.984,32.693000000000005,39.006,32.606
33.58,34.375,34.861999999999995,32.656,38.994,32.562
33.516999999999996,34.38,34.74,32.618,38.966,32.519
33.455,34.382,34.619,32.58,38.924,32.478
33.394,34.38,34.503,32.541,38.869,32.438
33.333,34.376,34.391,32.501999999999995,38.804,32.399
33.275,34.368,34.288000000000004,32.464,38.729,32.361999999999995
33.218,34.358000000000004,34.194,32.426,38.645,32.325
33.164,34.345,34.113,32.389,38.555,32.29
33.111,34.330999999999996,34.045,32.353,38.459,32.257
33.061,34.313,33.992,32.32,38.359,32.225
33.010999999999996,34.294000000000004,33.955,32.288000000000004,38.255,32.195
32.963,34.272,33.933,32.258,38.148,32.168
32.915,34.248000000000005,33.925,32.231,38.039,32.141
32.868,34.221,33.929,32.205999999999996,37.929,32.117
32.821999999999996,34.193000000000005,33.943000000000005,32.184,37.818000000000005,32.094
32.777,34.163000000000004,33.965,32.165,37.707,32.073
32.732,34.132,33.991,32.15,37.598,32.054
32.689,34.1,34.021,32.14,37.489000000000004,32.04
32.645,34.067,34.051,32.137,37.383,32.03
32.602,34.034,34.08,32.141999999999996,37.278,32.027
32.56,34.001,34.107,32.159,37.174,32.031
32.516999999999996,33.967,34.133,32.19,37.073,32.046
32.475,33.933,34.157,32.239000000000004,36.973,32.073
32.434,33.899,34.18,32.309,36.875,32.115
32.394,33.864000000000004,34.202,32.403,36.777,32.173
32.355,33.828,34.225,32.524,36.681,32.248000000000005
32.32,33.792,34.248000000000005,32.673,36.584,32.342
32.288000000000004,33.756,34.274,32.85,36.486999999999995,32.454
32.263000000000005,33.72,34.303000000000004,33.056999999999995,36.39,32.586
32.246,33.684,34.334,33.293,36.293,32.736
32.239000000000004,33.647,34.37,33.556,36.196,32.902
32.247,33.611,34.41,33.843,36.101,33.083
32.271,33.576,34.455,34.153,36.007,33.275999999999996
32.314,33.54,34.504,34.481,35.915,33.479
32.379,33.505,34.558,34.824,35.826,33.688
32.468,33.47,34.615,35.177,35.741,33.900999999999996
32.583,33.435,34.676,35.535,35.659,34.115
32.726,33.399,34.739000000000004,35.895,35.583,34.327
32.896,33.363,34.803000000000004,36.251999999999995,35.510999999999996,34.535
33.092,33.326,34.87,36.602,35.444,34.736
33.313,33.289,34.938,36.942,35.382,34.929
33.556999999999995,33.251999999999995,35.006,37.268,35.326,35.111
33.82,33.217,35.074,37.577,35.275,35.282
34.099000000000004,33.181999999999995,35.141999999999996,37.866,35.231,35.44
34.39,33.148,35.209,38.134,35.192,35.582
34.687,33.116,35.275,38.378,35.159,35.708
34.986,33.086,35.339,38.598,35.132,35.817
35.283,33.056999999999995,35.402,38.792,35.111,35.91
35.571999999999996,33.029,35.461999999999996,38.96,35.094,35.985
35.851,33.003,35.519,39.102,35.082,36.042
36.115,32.978,35.571999999999996,39.219,35.074,36.083
36.361,32.954,35.622,39.311,35.069,36.108000000000004
36.586999999999996,32.931,35.668,39.379,35.067,36.119
36.792,32.91,35.71,39.425,35.068000000000005,36.117
36.973,32.891,35.749,39.45,35.07,36.102
37.131,32.876,35.784,39.455999999999996,35.074,36.078
37.264,32.867,35.815,39.445,35.079,36.044000000000004
37.373000000000005,32.864000000000004,35.842,39.417,35.084,36.003
37.458,32.871,35.866,39.375,35.088,35.955999999999996
37.521,32.889,35.887,39.32,35.093,35.903
37.562,32.92,35.904,39.254,35.096,35.847
37.583,32.966,35.919000000000004,39.178000000000004,35.097,35.789
37.585,33.028,35.931,39.093,35.097,35.728
37.57,33.107,35.939,39.0,35.093,35.667
37.539,33.205,35.945,38.900999999999996,35.086999999999996,35.604
37.494,33.32,35.948,38.797,35.077,35.541
37.437,33.453,35.948,38.689,35.064,35.479
37.369,33.602,35.945,38.577,35.048,35.416
37.292,33.766,35.939,38.463,35.028,35.354
37.209,33.943000000000005,35.929,38.347,35.004,35.292
37.119,34.129,35.918,38.23,34.977,35.232
37.024,34.324,35.904,38.111999999999995,34.946,35.174
36.926,34.522,35.887,37.994,34.913000000000004,35.118
36.824,34.723,35.868,37.874,34.876999999999995,35.065
36.72,34.922,35.847,37.753,34.839,35.014
36.614000000000004,35.118,35.825,37.631,34.8,34.965
36.507,35.306999999999995,35.801,37.509,34.759,34.919000000000004
36.400999999999996,35.486999999999995,35.775999999999996,37.385,34.717,34.875
36.295,35.655,35.75,37.260999999999996,34.674,34.833
36.19,35.81,35.723,37.137,34.63,34.793
36.086,35.95,35.696999999999996,37.013000000000005,34.585,34.754
35.985,36.073,35.672,36.889,34.539,34.715
35.885999999999996,36.18,35.648,36.766,34.491,34.677
35.791,36.271,35.626999999999995,36.643,34.442,34.637
35.7,36.344,35.609,36.522,34.391,34.597
35.611999999999995,36.400999999999996,35.594,36.402,34.338,34.556
35.529,36.442,35.582,36.283,34.285,34.513000000000005
35.449,36.469,35.574,36.166,34.23,34.469
35.373000000000005,36.482,35.568000000000005,36.051,34.175,34.424
35.298,36.482,35.563,35.938,34.119,34.378
35.225,36.47,35.559,35.829,34.063,34.332
35.153,36.446999999999996,35.554,35.723,34.007,34.287
35.080999999999996,36.415,35.548,35.623000000000005,33.951,34.242
35.01,36.375,35.538000000000004,35.528,33.894,34.198
34.939,36.327,35.525999999999996,35.44,33.836999999999996,34.156
34.868,36.273,35.51,35.36,33.78,34.116
34.797,36.214,35.489000000000004,35.286,33.724000000000004,34.08
34.726,36.150999999999996,35.465,35.22,33.667,34.046
34.656,36.084,35.436,35.161,33.611,34.016
34.588,36.016,35.404,35.11,33.555,33.99
34.521,35.946,35.368,35.066,33.499,33.968
34.458,35.875,35.329,35.029,33.444,33.951
34.397,35.804,35.289,35.0,33.39,33.937
34.34,35.732,35.247,34.976,33.336,33.927
34.288000000000004,35.661,35.205,34.959,33.282,33.921
34.242,35.591,35.163000000000004,34.948,33.23,33.917
34.203,35.522,35.122,34.942,33.179,33.916
34.17,35.453,35.080999999999996,34.941,33.13,33.916
34.143,35.384,35.042,34.943000000000005,33.082,33.917
34.124,35.317,35.004,34.949,33.036,33.919000000000004
34.111,35.25,34.967,34.958,32.992,33.921
34.103,35.184,34.935,34.97,32.949,33.923
34.1,35.119,34.907,34.985,32.908,33.926
34.101,35.055,34.885999999999996,35.001999999999995,32.869,33.928000000000004
34.105,34.993,34.875,35.02,32.832,33.93
34.11,34.931,34.875,35.04,32.797,33.931999999999995
34.116,34.872,34.891,35.061,32.765,33.934
34.123000000000005,34.813,34.922,35.082,32.736,33.935
34.13,34.756,34.973,35.102,32.711999999999996,33.936
34.135999999999996,34.702,35.045,35.122,32.694,33.936
34.141,34.649,35.137,35.14,32.684,33.934
34.146,34.599000000000004,35.251999999999995,35.156,32.683,33.93
34.15,34.552,35.388000000000005,35.169000000000004,32.695,33.923
34.153,34.508,35.543,35.179,32.721,33.914
34.155,34.467,35.715,35.185,32.764,33.903
34.156,34.43,35.902,35.188,32.826,33.888000000000005
34.156,34.396,36.099000000000004,35.185,32.911,33.872
34.153,34.366,36.305,35.178000000000004,33.019,33.852
34.149,34.34,36.516,35.165,33.152,33.829
34.141,34.316,36.728,35.147,33.31,33.804
34.132,34.296,36.938,35.124,33.493,33.775999999999996
34.12,34.28,37.144,35.097,33.699,33.745
34.105,34.266,37.343,35.066,33.927,33.711999999999996
34.086999999999996,34.256,37.531,35.033,34.173,33.677
34.066,34.249,37.705999999999996,34.996,34.433,33.64
34.043,34.246,37.868,34.958,34.705,33.603
34.018,34.246,38.014,34.918,34.985,33.565
33.99,34.249,38.143,34.876999999999995,35.266999999999996,33.528
33.959,34.255,38.256,34.834,35.55,33.491
33.926,34.263000000000005,38.352,34.791,35.829,33.454
33.89,34.275,38.431,34.747,36.102,33.419000000000004
33.851,34.289,38.493,34.703,36.366,33.385999999999996
33.811,34.304,38.54,34.658,36.618,33.353
33.769,34.321,38.571,34.614000000000004,36.856,33.321999999999996
33.726,34.339,38.589,34.569,37.078,33.292
33.681999999999995,34.357,38.593,34.525,37.281,33.262
33.637,34.375,38.585,34.48,37.463,33.234
33.591,34.391999999999996,38.567,34.434,37.623000000000005,33.205
33.546,34.408,38.539,34.389,37.760999999999996,33.176
33.499,34.423,38.501999999999995,34.343,37.876,33.147
33.453,34.436,38.458,34.297,37.968,33.118
33.406,34.446999999999996,38.408,34.249,38.038000000000004,33.088
33.359,34.457,38.353,34.201,38.085,33.056999999999995
33.313,34.464,38.295,34.152,38.111999999999995,33.025999999999996
33.266,34.47,38.234,34.102,38.118,32.994
33.22,34.473,38.171,34.051,38.107,32.961999999999996
33.175,34.474000000000004,38.108000000000004,33.999,38.078,32.929
33.13,34.472,38.045,33.946999999999996,38.036,32.898
33.086999999999996,34.467,37.981,33.895,37.98,32.867
33.044000000000004,34.46,37.918,33.842,37.913000000000004,32.836999999999996
33.001,34.45,37.857,33.79,37.838,32.806999999999995
32.959,34.437,37.797,33.738,37.754,32.779
32.917,34.421,37.74,33.686,37.665,32.751999999999995
32.876,34.403,37.686,33.635999999999996,37.57,32.725
32.834,34.381,37.634,33.586,37.472,32.699
32.793,34.357,37.585,33.537,37.371,32.675
32.753,34.330999999999996,37.536,33.489000000000004,37.269,32.650999999999996
32.711999999999996,34.303000000000004,37.486999999999995,33.44,37.164,32.629
32.672,34.273,37.439,33.391999999999996,37.059,32.607
32.631,34.243,37.391999999999996,33.344,36.954,32.585
32.592,34.211,37.346,33.297,36.848,32.565
32.552,34.18,37.3,33.251,36.742,32.546
32.514,34.148,37.254,33.205,36.635999999999996,32.527
32.476,34.116,37.208,33.159,36.53,32.51
32.439,34.085,37.163000000000004,33.113,36.425,32.494
32.403,34.054,37.116,33.067,36.32,32.477
32.366,34.024,37.069,33.022,36.216,32.461
32.33,33.995,37.02,32.977,36.111,32.445
32.293,33.966,36.969,32.933,36.007,32.429
32.257,33.938,36.917,32.889,35.902,32.415
32.222,33.91,36.863,32.847,35.798,32.404
32.186,33.881,36.809,32.805,35.695,32.397
32.150999999999996,33.853,36.756,32.764,35.592,32.397
32.116,33.825,36.703,32.723,35.49,32.404
32.080999999999996,33.798,36.650999999999996,32.681999999999995,35.389,32.422
32.047,33.77,36.601,32.641999999999996,35.289,32.452
32.014,33.743,36.553000000000004,32.602,35.192,32.497
31.982,33.715,36.508,32.562,35.099000000000004,32.559
31.953000000000003,33.688,36.467,32.523,35.009,32.639
31.929000000000002,33.662,36.429,32.485,34.924,32.736999999999995
31.910999999999998,33.635999999999996,36.394,32.449,34.845,32.855
31.901999999999997,33.61,36.363,32.417,34.77,32.991
31.905,33.584,36.335,32.39,34.701,33.144
31.921,33.559,36.309,32.371,34.637,33.313
31.954,33.534,36.285,32.363,34.579,33.495
32.005,33.51,36.262,32.369,34.527,33.689
32.076,33.486999999999995,36.239000000000004,32.393,34.481,33.891
32.169000000000004,33.464,36.215,32.439,34.44,34.097
32.284,33.442,36.191,32.509,34.403,34.305
32.422,33.42,36.166,32.607,34.372,34.512
32.583,33.398,36.139,32.735,34.346,34.715
32.764,33.376999999999995,36.11,32.895,34.324,34.91
32.965,33.357,36.08,33.085,34.305,35.095
33.181999999999995,33.336999999999996,36.048,33.306,34.29,35.268
33.413000000000004,33.317,36.014,33.555,34.279,35.427
33.653,33.299,35.98,33.830999999999996,34.269,35.571
33.899,33.282,35.944,34.131,34.262,35.7
34.146,33.269,35.909,34.45,34.257,35.815
34.391999999999996,33.258,35.875,34.786,34.255,35.915
34.63,33.253,35.841,35.133,34.254,36.0
34.857,33.255,35.809,35.486999999999995,34.256,36.071999999999996
35.07,33.266,35.778,35.844,34.258,36.129
35.266,33.286,35.749,36.199,34.260999999999996,36.172
35.443000000000005,33.318000000000005,35.721,36.549,34.265,36.202
35.599000000000004,33.363,35.692,36.889,34.269,36.219
35.734,33.422,35.664,37.215,34.272,36.223
35.847,33.498000000000005,35.635,37.525,34.273,36.217
35.938,33.591,35.605,37.816,34.272,36.201
