Trial 1:0back,Trial 2:2back,Trial 3:3back,Trial 4:2back,Trial 5:3back,Trial 6:0back
33.515,35.185,33.183,39.425,32.905,35.084
33.498000000000005,35.134,33.228,39.263000000000005,32.915,34.998000000000005
33.485,35.084,33.29,39.104,32.941,34.914
33.479,35.034,33.371,38.946,32.984,34.832
33.48,34.986,33.472,38.789,33.049,34.751999999999995
33.492,34.938,33.594,38.633,33.135999999999996,34.675
33.515,34.891,33.738,38.477,33.248000000000005,34.603
33.551,34.846,33.904,38.32,33.385999999999996,34.535
33.602,34.802,34.091,38.163000000000004,33.551,34.473
33.669000000000004,34.758,34.296,38.005,33.744,34.417
33.751999999999995,34.715,34.519,37.847,33.963,34.368
33.852,34.671,34.756,37.69,34.208,34.325
33.968,34.629,35.003,37.534,34.476,34.289
34.1,34.586,35.258,37.38,34.766,34.260999999999996
34.245,34.544000000000004,35.516999999999996,37.229,35.074,34.239000000000004
34.403,34.501999999999995,35.775,37.082,35.397,34.224000000000004
34.571999999999996,34.461,36.029,36.941,35.731,34.217
34.748000000000005,34.419000000000004,36.275,36.806,36.07,34.216
34.93,34.379,36.51,36.679,36.413000000000004,34.222
35.114000000000004,34.338,36.73,36.56,36.753,34.234
35.298,34.299,36.933,36.451,37.088,34.251
35.479,34.26,37.117,36.352,37.413000000000004,34.274
35.655,34.221,37.28,36.263000000000005,37.724000000000004,34.301
35.824,34.183,37.421,36.185,38.018,34.332
35.982,34.146,37.539,36.118,38.293,34.367
36.129,34.108000000000004,37.634,36.062,38.546,34.403
36.263000000000005,34.069,37.708,36.016999999999996,38.774,34.442
36.383,34.029,37.76,35.982,38.977,34.48
36.488,33.989000000000004,37.792,35.957,39.153,34.519
36.578,33.948,37.806999999999995,35.94,39.301,34.556999999999995
36.654,33.908,37.804,35.931999999999995,39.422,34.594
36.714,33.867,37.786,35.93,39.516,34.63
36.759,33.827,37.755,35.934,39.583,34.664
36.79,33.788000000000004,37.711999999999996,35.943000000000005,39.625,34.696
36.809,33.75,37.66,35.955,39.644,34.725
36.816,33.711999999999996,37.598,35.969,39.641,34.751999999999995
36.811,33.676,37.53,35.984,39.62,34.775
36.798,33.641,37.455999999999996,36.0,39.582,34.793
36.775999999999996,33.607,37.378,36.015,39.529,34.806999999999995
36.747,33.574,37.296,36.029,39.465,34.817
36.711999999999996,33.543,37.211999999999996,36.04,39.389,34.821999999999996
36.671,33.512,37.126999999999995,36.049,39.306,34.821999999999996
36.626,33.483000000000004,37.041,36.054,39.216,34.818000000000005
36.577,33.454,36.955,36.056,39.122,34.81
36.524,33.427,36.87,36.055,39.024,34.797
36.469,33.399,36.787,36.048,38.926,34.781
36.412,33.372,36.705,36.037,38.827,34.76
36.353,33.345,36.625,36.02,38.729,34.736
36.292,33.318000000000005,36.547,35.998000000000005,38.633,34.709
36.231,33.291,36.472,35.971,38.538000000000004,34.679
36.17,33.264,36.399,35.938,38.445,34.646
36.109,33.236999999999995,36.329,35.899,38.353,34.611
36.048,33.21,36.262,35.854,38.264,34.574
35.988,33.183,36.196999999999996,35.803000000000004,38.176,34.536
35.928000000000004,33.157,36.134,35.747,38.092,34.495
35.869,33.133,36.071999999999996,35.684,38.009,34.453
35.811,33.111999999999995,36.012,35.615,37.93,34.411
35.751999999999995,33.096,35.952,35.541,37.852,34.367
35.694,33.086,35.891999999999996,35.461,37.775999999999996,34.323
35.637,33.085,35.83,35.376999999999995,37.702,34.279
35.58,33.095,35.768,35.29,37.629,34.236
35.525,33.119,35.705,35.2,37.556,34.193000000000005
35.471,33.159,35.641,35.107,37.482,34.15
35.418,33.219,35.578,35.014,37.407,34.109
35.368,33.3,35.515,34.921,37.330999999999996,34.068000000000005
35.319,33.404,35.453,34.83,37.255,34.027
35.273,33.534,35.393,34.74,37.178000000000004,33.988
35.229,33.688,35.336999999999996,34.654,37.102,33.948
35.188,33.869,35.284,34.571,37.027,33.91
35.149,34.074,35.235,34.494,36.953,33.873000000000005
35.113,34.302,35.191,34.421,36.882,33.836999999999996
35.080999999999996,34.551,35.152,34.353,36.815,33.803000000000004
35.051,34.818000000000005,35.118,34.289,36.751,33.77
35.025999999999996,35.099000000000004,35.089,34.229,36.693000000000005,33.74
35.004,35.39,35.065,34.172,36.64,33.711999999999996
34.986999999999995,35.689,35.047,34.118,36.592,33.686
34.974000000000004,35.99,35.033,34.066,36.55,33.662
34.966,36.29,35.025,34.016,36.515,33.64
34.961,36.585,35.021,33.966,36.485,33.619
34.961,36.87,35.021,33.918,36.461999999999996,33.6
34.965,37.143,35.025,33.868,36.444,33.582
34.972,37.4,35.033,33.819,36.433,33.566
34.982,37.639,35.043,33.768,36.426,33.55
34.994,37.858000000000004,35.056,33.717,36.424,33.535
35.009,38.055,35.069,33.665,36.427,33.52
35.025,38.23,35.083,33.611999999999995,36.433,33.506
35.042,38.381,35.098,33.558,36.442,33.491
35.061,38.508,35.111,33.501999999999995,36.453,33.475
35.079,38.613,35.123000000000005,33.444,36.466,33.459
35.098,38.695,35.133,33.385,36.479,33.442
35.115,38.754,35.141,33.325,36.494,33.424
35.132,38.792,35.147,33.264,36.508,33.407
35.147,38.811,35.149,33.201,36.523,33.389
35.16,38.813,35.147,33.137,36.536,33.372
35.171,38.798,35.141999999999996,33.071999999999996,36.547,33.355
35.18,38.768,35.134,33.005,36.556999999999995,33.338
35.187,38.725,35.123000000000005,32.937,36.564,33.321
35.192,38.671,35.108000000000004,32.869,36.567,33.303000000000004
35.194,38.607,35.091,32.799,36.567,33.285
35.194,38.535,35.071,32.729,36.563,33.266999999999996
35.191,38.455,35.048,32.659,36.554,33.249
35.187,38.37,35.023,32.59,36.54,33.23
35.18,38.28,34.995,32.522,36.521,33.211
35.17,38.186,34.965,32.455999999999996,36.496,33.192
35.159,38.089,34.931999999999995,32.394,36.465,33.173
35.145,37.991,34.896,32.336,36.428000000000004,33.154
35.129,37.89,34.858000000000004,32.281,36.385999999999996,33.135999999999996
35.11,37.788000000000004,34.818000000000005,32.231,36.339,33.12
35.09,37.684,34.775999999999996,32.184,36.287,33.105
35.068000000000005,37.579,34.732,32.141999999999996,36.231,33.093
35.044000000000004,37.474000000000004,34.687,32.104,36.17,33.085
35.019,37.368,34.641,32.069,36.106,33.082
34.993,37.260999999999996,34.593,32.037,36.038000000000004,33.086999999999996
34.966,37.154,34.545,32.008,35.968,33.102
34.937,37.046,34.496,31.980999999999998,35.897,33.129
34.908,36.938,34.448,31.956,35.824,33.171
34.879,36.829,34.400999999999996,31.934,35.75,33.231
34.849000000000004,36.719,34.355,31.913,35.676,33.31
34.819,36.609,34.31,31.897,35.601,33.412
34.788000000000004,36.5,34.266999999999996,31.884,35.525999999999996,33.536
34.757,36.391,34.225,31.879,35.452,33.686
34.725,36.284,34.185,31.881,35.379,33.861
34.693000000000005,36.179,34.146,31.895,35.308,34.062
34.661,36.076,34.107,31.924,35.238,34.287
34.63,35.977,34.069,31.97,35.169000000000004,34.535
34.599000000000004,35.883,34.032,32.038000000000004,35.103,34.804
34.57,35.793,33.996,32.133,35.038000000000004,35.091
34.541,35.709,33.959,32.257,34.975,35.394
34.514,35.631,33.923,32.414,34.913000000000004,35.708
34.486999999999995,35.561,33.887,32.606,34.851,36.029
34.461,35.497,33.852,32.836,34.79,36.354
34.436,35.441,33.816,33.105,34.729,36.678000000000004
34.412,35.391999999999996,33.781,33.411,34.669000000000004,36.995
34.388000000000005,35.349000000000004,33.745,33.755,34.608000000000004,37.302
34.365,35.314,33.71,34.132,34.547,37.594
34.344,35.284,33.674,34.541,34.488,37.867
34.323,35.26,33.639,34.976,34.429,38.118
34.303000000000004,35.242,33.603,35.431,34.372,38.345
34.283,35.228,33.568000000000005,35.902,34.318000000000005,38.545
34.264,35.219,33.534,36.383,34.265,38.718
34.246,35.214,33.501999999999995,36.866,34.215,38.863
34.227,35.213,33.47,37.345,34.167,38.979
34.209,35.215,33.441,37.814,34.121,39.068000000000005
34.191,35.221,33.413000000000004,38.266,34.078,39.13
34.173,35.229,33.387,38.696,34.037,39.167
34.154,35.239000000000004,33.361,39.097,33.998000000000005,39.181
34.135999999999996,35.251,33.336999999999996,39.467,33.961,39.174
34.117,35.264,33.313,39.801,33.926,39.147
34.098,35.278,33.29,40.096,33.891999999999996,39.104
34.078,35.291,33.266,40.352,33.859,39.046
34.059,35.303000000000004,33.243,40.567,33.827,38.975
34.04,35.314,33.219,40.741,33.797,38.893
34.021,35.323,33.195,40.876,33.768,38.801
34.001999999999995,35.330999999999996,33.171,40.973,33.74,38.702
33.983000000000004,35.336999999999996,33.147,41.034,33.713,38.598
33.964,35.34,33.122,41.06100000000001,33.687,38.489000000000004
33.946,35.341,33.096,41.058,33.662,38.376999999999995
33.928000000000004,35.339,33.07,41.028,33.637,38.264
33.91,35.333,33.043,40.974,33.613,38.15
33.891999999999996,35.324,33.016,40.899,33.589,38.035
33.875,35.312,32.988,40.806,33.565,37.921
33.859,35.296,32.959,40.698,33.541,37.808
33.846,35.278,32.929,40.577,33.516999999999996,37.696
33.836,35.256,32.898,40.446,33.493,37.586
33.830999999999996,35.233000000000004,32.866,40.306999999999995,33.469,37.478
33.832,35.205999999999996,32.834,40.161,33.444,37.372
33.841,35.177,32.802,40.010999999999996,33.419000000000004,37.268
33.859,35.145,32.771,39.858000000000004,33.395,37.167
33.888000000000005,35.111,32.741,39.705,33.37,37.069
33.929,35.075,32.715,39.551,33.345,36.972
33.984,35.037,32.691,39.398,33.32,36.876999999999995
34.054,34.997,32.673,39.246,33.294000000000004,36.784
34.139,34.955999999999996,32.661,39.096,33.268,36.691
34.24,34.913000000000004,32.656,38.946999999999996,33.242,36.599000000000004
34.358000000000004,34.868,32.66,38.8,33.215,36.507
34.492,34.821,32.676,38.654,33.189,36.416
34.64,34.773,32.705,38.509,33.163000000000004,36.326
34.801,34.722,32.749,38.366,33.138000000000005,36.236999999999995
34.974000000000004,34.67,32.812,38.223,33.114000000000004,36.15
35.156,34.617,32.895,38.080999999999996,33.092,36.064
35.345,34.563,33.0,37.939,33.071,35.981
35.537,34.507,33.128,37.797,33.055,35.902
35.73,34.45,33.279,37.655,33.044000000000004,35.827
35.921,34.391999999999996,33.453,37.512,33.04,35.758
36.107,34.334,33.648,37.37,33.046,35.694
36.286,34.275999999999996,33.864000000000004,37.227,33.064,35.637
36.455,34.218,34.097,37.085,33.096,35.586999999999996
36.611999999999995,34.161,34.345,36.944,33.144,35.544000000000004
36.755,34.105,34.603,36.804,33.211999999999996,35.508
36.883,34.05,34.87,36.666,33.302,35.48
36.996,33.998000000000005,35.139,36.531,33.415,35.459
37.092,33.946999999999996,35.407,36.4,33.553000000000004,35.446
37.171,33.898,35.671,36.274,33.718,35.44
37.235,33.851,35.927,36.156,33.91,35.441
37.282,33.806,36.172,36.045,34.129,35.449
37.315,33.763000000000005,36.403,35.944,34.373000000000005,35.461999999999996
37.333,33.721,36.618,35.851,34.641,35.479
37.339,33.68,36.814,35.768,34.93,35.501
37.333,33.64,36.99,35.695,35.236999999999995,35.525999999999996
37.317,33.6,37.147,35.632,35.556999999999995,35.552
37.291,33.561,37.282,35.577,35.885999999999996,35.580999999999996
37.256,33.523,37.397,35.532,36.222,35.61
37.214,33.485,37.492,35.494,36.558,35.639
37.167,33.446999999999996,37.568000000000005,35.465,36.891999999999996,35.669000000000004
37.114000000000004,33.411,37.625,35.443000000000005,37.218,35.696999999999996
37.056999999999995,33.375,37.665,35.427,37.532,35.724000000000004
36.997,33.34,37.689,35.417,37.83,35.749
36.935,33.306,37.698,35.412,38.109,35.771
36.871,33.272,37.694,35.41,38.365,35.789
36.806999999999995,33.239000000000004,37.679,35.411,38.597,35.803000000000004
36.743,33.205,37.654,35.414,38.804,35.812
36.679,33.172,37.619,35.418,38.983000000000004,35.816
36.616,33.139,37.577,35.423,39.135,35.814
36.553000000000004,33.106,37.529,35.427,39.26,35.806999999999995
36.492,33.073,37.476,35.431,39.358000000000004,35.795
36.43,33.041,37.418,35.434,39.431,35.777
36.369,33.01,37.358000000000004,35.435,39.479,35.755
36.308,32.98,37.295,35.433,39.504,35.728
36.248000000000005,32.951,37.23,35.428000000000004,39.508,35.696999999999996
36.187,32.923,37.165,35.42,39.493,35.662
36.126999999999995,32.896,37.1,35.408,39.46,35.624
36.067,32.871,37.034,35.391,39.412,35.583
36.008,32.847,36.969,35.371,39.351,35.539
35.949,32.824,36.904,35.346,39.278,35.493
35.891999999999996,32.802,36.84,35.316,39.196,35.445
35.836,32.782,36.777,35.282,39.106,35.395
35.782,32.762,36.714,35.244,39.01,35.344
35.729,32.744,36.653,35.203,38.909,35.291
35.679,32.729,36.591,35.158,38.805,35.236999999999995
35.631,32.716,36.53,35.109,38.699,35.181999999999995
35.586,32.707,36.469,35.056999999999995,38.592,35.126999999999995
35.544000000000004,32.703,36.408,35.001999999999995,38.484,35.071
35.506,32.708,36.347,34.944,38.376,35.016
35.472,32.723,36.285,34.883,38.269,34.96
35.443000000000005,32.751,36.223,34.818000000000005,38.164,34.906
35.417,32.795,36.16,34.751,38.06,34.852
35.395,32.859,36.097,34.68,37.958,34.8
35.376999999999995,32.944,36.034,34.608000000000004,37.857,34.748000000000005
35.361999999999995,33.053000000000004,35.972,34.534,37.759,34.698
35.352,33.188,35.911,34.458,37.662,34.649
35.345,33.351,35.851,34.381,37.566,34.6
35.341,33.54,35.794000000000004,34.304,37.471,34.553000000000004
35.341,33.756,35.74,34.226,37.376999999999995,34.508
35.345,33.999,35.69,34.148,37.284,34.463
35.352,34.266,35.643,34.071,37.191,34.42
35.361,34.555,35.6,33.996,37.099000000000004,34.379
35.373000000000005,34.864000000000004,35.561,33.921,37.007,34.339
35.385999999999996,35.187,35.525999999999996,33.849000000000004,36.916,34.301
35.400999999999996,35.521,35.496,33.778,36.827,34.264
35.417,35.861999999999995,35.47,33.709,36.739000000000004,34.229
35.434,36.205,35.448,33.641999999999996,36.655,34.194
35.452,36.546,35.431,33.576,36.573,34.161
35.469,36.88,35.417,33.514,36.495,34.13
35.485,37.202,35.406,33.453,36.42,34.099000000000004
35.499,37.51,35.397,33.395,36.351,34.069
35.510999999999996,37.799,35.391,33.34,36.287,34.04
35.52,38.067,35.385999999999996,33.286,36.229,34.012
35.527,38.311,35.383,33.235,36.177,33.985
35.53,38.529,35.38,33.186,36.133,33.959
35.53,38.72,35.378,33.139,36.095,33.933
35.527,38.883,35.376999999999995,33.094,36.064,33.908
35.52,39.019,35.376,33.05,36.04,33.884
35.51,39.129,35.374,33.008,36.022,33.86
35.497,39.213,35.372,32.968,36.010999999999996,33.836999999999996
35.481,39.273,35.369,32.929,36.005,33.814
35.461999999999996,39.311,35.364000000000004,32.891999999999996,36.004,33.793
35.44,39.329,35.357,32.858000000000004,36.009,33.771
35.416,39.329,35.349000000000004,32.824,36.019,33.751
35.391,39.312,35.336999999999996,32.793,36.033,33.73
35.364000000000004,39.281,35.323,32.763000000000005,36.052,33.711
35.335,39.236,35.306,32.734,36.073,33.691
35.305,39.181,35.285,32.705999999999996,36.098,33.672
35.273,39.115,35.260999999999996,32.679,36.124,33.653
35.24,39.041,35.234,32.652,36.152,33.634
35.207,38.96,35.203,32.624,36.18,33.614000000000004
35.172,38.874,35.17,32.596,36.207,33.593
35.137,38.783,35.134,32.567,36.233000000000004,33.571
35.101,38.689,35.096,32.536,36.256,33.548
35.065,38.593,35.056999999999995,32.503,36.275,33.524
35.029,38.496,35.016,32.468,36.291,33.5
34.993,38.398,34.974000000000004,32.431,36.302,33.476
34.958,38.299,34.931,32.39,36.308,33.453
34.922,38.2,34.885999999999996,32.346,36.308,33.43
34.888000000000005,38.101,34.84,32.299,36.302,33.411
34.854,38.001999999999995,34.794000000000004,32.248000000000005,36.29,33.396
34.819,37.902,34.747,32.195,36.271,33.389
34.785,37.801,34.701,32.141,36.246,33.39
34.751999999999995,37.699,34.657,32.089,36.215,33.403
34.719,37.596,34.614000000000004,32.04,36.178000000000004,33.43
34.685,37.493,34.573,31.998,36.135999999999996,33.474000000000004
34.652,37.39,34.533,31.965999999999998,36.09,33.536
34.62,37.287,34.496,31.949,36.039,33.621
34.586999999999996,37.183,34.459,31.951,35.985,33.73
34.555,37.079,34.424,31.976999999999997,35.928000000000004,33.863
34.522,36.974000000000004,34.39,32.03,35.869,34.024
34.489000000000004,36.87,34.357,32.114000000000004,35.808,34.21
34.455,36.765,34.325,32.233000000000004,35.745,34.421
34.421,36.661,34.294000000000004,32.388000000000005,35.68,34.657
34.387,36.556999999999995,34.264,32.582,35.615,34.914
34.352,36.453,34.236,32.814,35.548,35.19
34.318000000000005,36.351,34.208,33.084,35.481,35.481
34.285,36.251,34.18,33.391,35.413000000000004,35.784
34.251,36.154,34.154,33.733000000000004,35.344,36.095
34.218,36.061,34.128,34.104,35.275,36.408
34.185,35.973,34.103,34.501999999999995,35.205,36.72
34.152,35.89,34.078,34.922,35.134,37.025999999999996
34.118,35.813,34.053000000000004,35.357,35.063,37.323
34.084,35.743,34.029,35.802,34.992,37.606
34.051,35.679,34.005,36.251,34.921,37.872
34.016,35.622,33.98,36.698,34.85,38.119
33.982,35.573,33.957,37.135999999999996,34.781,38.343
33.946999999999996,35.529,33.933,37.559,34.711999999999996,38.543
33.913000000000004,35.493,33.911,37.961999999999996,34.645,38.718
33.88,35.463,33.888000000000005,38.34,34.579,38.865
33.847,35.44,33.867,38.688,34.516,38.986
33.816,35.423,33.846,39.004,34.454,39.079
33.787,35.412,33.827,39.285,34.396,39.146
33.76,35.407,33.809,39.529,34.34,39.188
33.735,35.407,33.791,39.735,34.286,39.205
33.713,35.412,33.775,39.903,34.236,39.2
33.694,35.42,33.759,40.034,34.187,39.174
33.68,35.431,33.743,40.126999999999995,34.141,39.129
33.67,35.444,33.728,40.187,34.097,39.069
33.666,35.459,33.711999999999996,40.214,34.054,38.994
33.669000000000004,35.475,33.696,40.211,34.012,38.909
33.679,35.49,33.681,40.181999999999995,33.972,38.813
33.698,35.505,33.665,40.128,33.933,38.709
33.728,35.516999999999996,33.649,40.053000000000004,33.895,38.599000000000004
33.769,35.528,33.634,39.96,33.858000000000004,38.485
33.823,35.536,33.618,39.851,33.821999999999996,38.367
33.89,35.54,33.603,39.728,33.787,38.247
33.972,35.541,33.588,39.593,33.751999999999995,38.126
34.068000000000005,35.538000000000004,33.571999999999996,39.449,33.718,38.005
34.179,35.53,33.556999999999995,39.298,33.686,37.884
34.304,35.516999999999996,33.541,39.141,33.653,37.765
34.443000000000005,35.5,33.525,38.982,33.621,37.647
34.595,35.478,33.508,38.821,33.59,37.531
34.758,35.452,33.491,38.659,33.559,37.417
34.929,35.422,33.474000000000004,38.5,33.528,37.306
35.107,35.388000000000005,33.455,38.342,33.499,37.196999999999996
35.289,35.35,33.436,38.187,33.47,37.091
35.473,35.311,33.417,38.035,33.442,36.986999999999995
35.654,35.269,33.397,37.885999999999996,33.415,36.885999999999996
35.833,35.226,33.376999999999995,37.74,33.389,36.787
36.005,35.181999999999995,33.357,37.597,33.366,36.69
36.169000000000004,35.138000000000005,33.338,37.455999999999996,33.343,36.594
36.321999999999996,35.094,33.321,37.316,33.323,36.499
36.463,35.05,33.305,37.176,33.303000000000004,36.406
36.59,35.006,33.292,37.037,33.284,36.314
36.701,34.961,33.283,36.898,33.265,36.224000000000004
36.797,34.917,33.279,36.758,33.247,36.135
36.876999999999995,34.871,33.283,36.618,33.228,36.047
36.94,34.825,33.295,36.478,33.209,35.963
36.986999999999995,34.778,33.318000000000005,36.338,33.189,35.881
37.018,34.73,33.355,36.198,33.168,35.802
37.034,34.681999999999995,33.407,36.06,33.147,35.728
37.036,34.633,33.475,35.923,33.125,35.659
37.025999999999996,34.583,33.561,35.788000000000004,33.102,35.596
37.005,34.531,33.666,35.656,33.079,35.539
36.973,34.479,33.79,35.528,33.058,35.488
36.933,34.424,33.933,35.405,33.041,35.445
36.885,34.369,34.095,35.288000000000004,33.028,35.408
36.830999999999996,34.313,34.273,35.179,33.024,35.378
36.772,34.255,34.467,35.078,33.03,35.355
36.71,34.196999999999996,34.673,34.986999999999995,33.047,35.339
36.645,34.139,34.889,34.905,33.08,35.329
36.578,34.080999999999996,35.111999999999995,34.833,33.131,35.325
36.51,34.023,35.338,34.771,33.201,35.327
36.443000000000005,33.967,35.564,34.72,33.294000000000004,35.334
36.375,33.911,35.787,34.679,33.412,35.346
36.308,33.858000000000004,36.003,34.648,33.556,35.361999999999995
36.242,33.806,36.21,34.626999999999995,33.728,35.383
36.177,33.756,36.404,34.614000000000004,33.926,35.406
36.113,33.708,36.585,34.61,34.152,35.431999999999995
36.05,33.661,36.749,34.613,34.405,35.459
35.988,33.616,36.895,34.622,34.681,35.486999999999995
35.926,33.573,37.022,34.637,34.98,35.515
35.864000000000004,33.532,37.129,34.655,35.297,35.542
35.803000000000004,33.494,37.218,34.676,35.629,35.567
35.742,33.458,37.287,34.699,35.971,35.59
35.68,33.425,37.338,34.723,36.318000000000005,35.611
35.618,33.395,37.372,34.747,36.665,35.628
35.556,33.368,37.39,34.769,37.008,35.641
35.493,33.343,37.391999999999996,34.79,37.341,35.649
35.431999999999995,33.32,37.382,34.808,37.659,35.652
35.371,33.299,37.359,34.823,37.96,35.65
35.312,33.28,37.325,34.834,38.239000000000004,35.643
35.254,33.262,37.282,34.841,38.494,35.629
35.199,33.244,37.231,34.844,38.723,35.61
35.148,33.227,37.175,34.841,38.923,35.586
35.1,33.209,37.115,34.834,39.094,35.556
35.056,33.192,37.052,34.821,39.236,35.522
35.016999999999996,33.175,36.986999999999995,34.804,39.349000000000004,35.484
34.983000000000004,33.157,36.921,34.781,39.435,35.442
34.954,33.139,36.854,34.754,39.495,35.397
34.93,33.121,36.787,34.722,39.529,35.349000000000004
34.912,33.103,36.721,34.685,39.541,35.298
34.899,33.085,36.656,34.644,39.531,35.245
34.891999999999996,33.068000000000005,36.592,34.598,39.5,35.19
34.889,33.053000000000004,36.531,34.548,39.452,35.135
34.891999999999996,33.041,36.472,34.494,39.387,35.078
34.9,33.036,36.415,34.435,39.31,35.021
34.912,33.039,36.361,34.373000000000005,39.221,34.963
34.928000000000004,33.053000000000004,36.309,34.306999999999995,39.122,34.905
34.946999999999996,33.082,36.26,34.239000000000004,39.016,34.848
34.968,33.128,36.213,34.168,38.903,34.792
34.991,33.196,36.167,34.095,38.786,34.736
35.014,33.288000000000004,36.123000000000005,34.021,38.665,34.681999999999995
35.037,33.407,36.079,33.946999999999996,38.542,34.629
35.059,33.555,36.035,33.873000000000005,38.417,34.577
35.08,33.734,35.991,33.799,38.292,34.525999999999996
35.1,33.943000000000005,35.946,33.726,38.166,34.476
35.117,34.181999999999995,35.9,33.655,38.041,34.428000000000004
35.132,34.448,35.853,33.584,37.918,34.382
35.144,34.741,35.805,33.516,37.796,34.336999999999996
35.153,35.056999999999995,35.758,33.449,37.677,34.294000000000004
35.159,35.391999999999996,35.711,33.383,37.56,34.251999999999995
35.162,35.741,35.664,33.319,37.444,34.211
35.161,36.101,35.617,33.255,37.330999999999996,34.171
35.156,36.466,35.571999999999996,33.193000000000005,37.219,34.131
35.148,36.83,35.528,33.132,37.109,34.092
35.135999999999996,37.189,35.486,33.073,37.0,34.054
35.121,37.537,35.446999999999996,33.015,36.893,34.018
35.103,37.871,35.412,32.96,36.787,33.984
35.082,38.186,35.38,32.905,36.681999999999995,33.952
35.058,38.479,35.352,32.852,36.578,33.922
35.033,38.746,35.328,32.799,36.476,33.894
35.007,38.986,35.309,32.748000000000005,36.375,33.867
34.979,39.198,35.295,32.699,36.278,33.842
34.951,39.379,35.285,32.650999999999996,36.184,33.817
34.921,39.532,35.279,32.606,36.095,33.792
34.891999999999996,39.655,35.277,32.561,36.012,33.768
34.861999999999995,39.75,35.279,32.519,35.934,33.744
34.832,39.818000000000005,35.282,32.478,35.863,33.721
34.802,39.86,35.289,32.438,35.799,33.698
34.772,39.879,35.297,32.4,35.742,33.675
34.742,39.875,35.306999999999995,32.361999999999995,35.693000000000005,33.653
34.711999999999996,39.852,35.318000000000005,32.325,35.650999999999996,33.631
34.681999999999995,39.812,35.330999999999996,32.289,35.618,33.61
34.652,39.757,35.344,32.253,35.593,33.59
34.622,39.688,35.357,32.217,35.576,33.57
34.591,39.609,35.37,32.181999999999995,35.567,33.552
34.56,39.521,35.382,32.147,35.566,33.533
34.528,39.425,35.391999999999996,32.111999999999995,35.571999999999996,33.515
34.496,39.324,35.4,32.077,35.584,33.497
34.463,39.219,35.406,32.041,35.6,33.478
34.43,39.11,35.409,32.004,35.621,33.459
34.397,39.0,35.409,31.967,35.644,33.439
34.363,38.888000000000005,35.405,31.93,35.67,33.418
34.329,38.775,35.398,31.893,35.698,33.396
34.295,38.663000000000004,35.385999999999996,31.857,35.726,33.374
34.260999999999996,38.55,35.372,31.824,35.754,33.352
34.227,38.439,35.353,31.794,35.781,33.33
34.193000000000005,38.328,35.332,31.771,35.806999999999995,33.308
34.159,38.218,35.306999999999995,31.756,35.832,33.286
34.125,38.109,35.279,31.753,35.856,33.264
34.092,38.0,35.247,31.765,35.876999999999995,33.242
34.059,37.891,35.211,31.795,35.896,33.221
34.027,37.781,35.173,31.846999999999998,35.912,33.2
33.996,37.67,35.133,31.926,35.923,33.18
33.967,37.558,35.091,32.034,35.93,33.162
33.938,37.443000000000005,35.048,32.174,35.931999999999995,33.146
33.911,37.327,35.003,32.35,35.928000000000004,33.135
33.885,37.209,34.959,32.562,35.918,33.129
33.861,37.089,34.913000000000004,32.812,35.903,33.131
33.838,36.968,34.868,33.099000000000004,35.882,33.143
33.817,36.846,34.823,33.422,35.855,33.167
33.797,36.725,34.778,33.777,35.823,33.205999999999996
33.779,36.604,34.734,34.162,35.786,33.263000000000005
33.760999999999996,36.486,34.69,34.573,35.743,33.34
33.744,36.372,34.648,35.004,35.695,33.439
33.726,36.263000000000005,34.605,35.451,35.643,33.563
33.709,36.159,34.563,35.907,35.586,33.713
33.69,36.063,34.522,36.365,35.524,33.888000000000005
33.671,35.974000000000004,34.481,36.821,35.46,34.089
33.650999999999996,35.891999999999996,34.442,37.266999999999996,35.393,34.316
33.63,35.818000000000005,34.403,37.698,35.323,34.565
33.61,35.751999999999995,34.366,38.109,35.251999999999995,34.835
33.59,35.694,34.33,38.495,35.179,35.123000000000005
33.573,35.644,34.294000000000004,38.852,35.105,35.425
33.558,35.601,34.259,39.178000000000004,35.031,35.736
33.547,35.566,34.225,39.469,34.955999999999996,36.053000000000004
33.542,35.537,34.191,39.725,34.882,36.37
33.546,35.515,34.158,39.945,34.808,36.683
33.56,35.499,34.126,40.126999999999995,34.735,36.986999999999995
33.585,35.486999999999995,34.094,40.273,34.663000000000004,37.279
33.625,35.48,34.064,40.383,34.592,37.554
33.68,35.477,34.034,40.459,34.522,37.809
33.751,35.477,34.006,40.504,34.453,38.041
33.84,35.479,33.978,40.519,34.385999999999996,38.248000000000005
33.946,35.483000000000004,33.952,40.507,34.32,38.429
34.068000000000005,35.488,33.926,40.471,34.256,38.582
34.205999999999996,35.494,33.9,40.413000000000004,34.194,38.709
34.359,35.499,33.874,40.336,34.132,38.806999999999995
34.524,35.503,33.848,40.242,34.071999999999996,38.88
34.699,35.506,33.821999999999996,40.134,34.013000000000005,38.927
34.883,35.507,33.796,40.013000000000005,33.954,38.951
35.071999999999996,35.506,33.771,39.883,33.896,38.952
35.264,35.501999999999995,33.747,39.745,33.839,38.933
35.454,35.496,33.724000000000004,39.601,33.783,38.895
35.641,35.488,33.703,39.454,33.728,38.841
35.821,35.477,33.681999999999995,39.304,33.675,38.772
35.993,35.465,33.663000000000004,39.153,33.624,38.689
36.152,35.451,33.646,39.003,33.574,38.596
36.299,35.435,33.631,38.854,33.525999999999996,38.493
36.431,35.419000000000004,33.617,38.705999999999996,33.481,38.383
36.547,35.400999999999996,33.605,38.56,33.438,38.266
36.646,35.381,33.594,38.417,33.398,38.146
36.728,35.36,33.584,38.277,33.361,38.023
36.792,35.336999999999996,33.575,38.138000000000005,33.326,37.899
36.839,35.311,33.566,38.001999999999995,33.293,37.774
36.87,35.283,33.556999999999995,37.868,33.262,37.650999999999996
36.885,35.251999999999995,33.549,37.736,33.232,37.53
36.885999999999996,35.219,33.54,37.605,33.202,37.412
36.874,35.181999999999995,33.531,37.476,33.174,37.297
36.851,35.143,33.523,37.348,33.146,37.185
36.818000000000005,35.101,33.514,37.22,33.118,37.076
36.777,35.055,33.505,37.093,33.092,36.971
36.73,35.007,33.496,36.966,33.065,36.87
36.678000000000004,34.957,33.486,36.841,33.04,36.772
36.623000000000005,34.905,33.476,36.716,33.014,36.676
36.566,34.851,33.465,36.594,32.989000000000004,36.580999999999996
36.507,34.794000000000004,33.453,36.474000000000004,32.964,36.488
36.448,34.736,33.44,36.357,32.938,36.396
36.387,34.675,33.428000000000004,36.244,32.912,36.306
36.326,34.611999999999995,33.417,36.135999999999996,32.884,36.216
36.265,34.546,33.408,36.034,32.856,36.128
36.202,34.479,33.404,35.938,32.827,36.04
36.137,34.411,33.407,35.849000000000004,32.798,35.955
36.071,34.342,33.42,35.769,32.77,35.871
36.004,34.272,33.443000000000005,35.696,32.743,35.788000000000004
35.934,34.202,33.479,35.632,32.716,35.709
35.864000000000004,34.132,33.53,35.577,32.691,35.633
35.792,34.063,33.598,35.531,32.667,35.56
35.718,33.996,33.684,35.493,32.643,35.492
35.644,33.931999999999995,33.788000000000004,35.463,32.619,35.43
35.569,33.871,33.91,35.442,32.598,35.373000000000005
35.494,33.813,34.05,35.427,32.577,35.321999999999996
35.418,33.759,34.207,35.42,32.56,35.279
35.343,33.709,34.38,35.418,32.545,35.244
35.269,33.661,34.566,35.421,32.535,35.217
35.196,33.617,34.763000000000005,35.428000000000004,32.532,35.196999999999996
35.126,33.576,34.968,35.438,32.536,35.184
35.059,33.538000000000004,35.179,35.451,32.551,35.179
34.995,33.501999999999995,35.391,35.464,32.580999999999996,35.179
34.936,33.468,35.603,35.479,32.626,35.186
34.881,33.435,35.81,35.493,32.692,35.196999999999996
34.830999999999996,33.405,36.010999999999996,35.505,32.779,35.213
34.786,33.375,36.201,35.516,32.891,35.233000000000004
34.746,33.347,36.38,35.525,33.029,35.256
34.711,33.319,36.544000000000004,35.53,33.195,35.281
34.681,33.292,36.691,35.534,33.39,35.309
34.655,33.266,36.821999999999996,35.534,33.613,35.336999999999996
34.634,33.24,36.933,35.531,33.864000000000004,35.366
34.618,33.215,37.025999999999996,35.525,34.14,35.395
34.607,33.189,37.1,35.515,34.439,35.423
34.601,33.163000000000004,37.156,35.501999999999995,34.757,35.45
34.599000000000004,33.137,37.194,35.484,35.09,35.475
34.601,33.11,37.215,35.461999999999996,35.435,35.498000000000005
34.606,33.083,37.222,35.434,35.788000000000004,35.516999999999996
34.613,33.056,37.214,35.400999999999996,36.141999999999996,35.531
34.623000000000005,33.029,37.195,35.363,36.495,35.541
34.635,33.001999999999995,37.165,35.321,36.84,35.545
34.647,32.977,37.126999999999995,35.273,37.173,35.545
34.661,32.953,37.082,35.222,37.491,35.539
34.675,32.93,37.03,35.166,37.789,35.527
34.689,32.909,36.974000000000004,35.107,38.064,35.51
34.702,32.89,36.915,35.044000000000004,38.314,35.488
34.715,32.873000000000005,36.852,34.978,38.536,35.46
34.726,32.86,36.788000000000004,34.91,38.728,35.428000000000004
34.735,32.851,36.722,34.839,38.889,35.391999999999996
34.742,32.85,36.655,34.766999999999996,39.018,35.351
34.747,32.857,36.588,34.694,39.116,35.308
34.749,32.875,36.521,34.62,39.183,35.260999999999996
34.749,32.908,36.455,34.546,39.222,35.211999999999996
34.745,32.959,36.39,34.471,39.233000000000004,35.16
34.739000000000004,33.031,36.327,34.397,39.221,35.107
34.729,33.126,36.265,34.323,39.187,35.052
34.716,33.247,36.205,34.249,39.134,34.996
34.7,33.395,36.148,34.177,39.065,34.94
34.681,33.571999999999996,36.092,34.105,38.981,34.885
34.659,33.778,36.038000000000004,34.034,38.885999999999996,34.829
34.635999999999996,34.012,35.986999999999995,33.964,38.78,34.775
34.61,34.273,35.936,33.896,38.666,34.721
34.583,34.559,35.887,33.83,38.545,34.668
34.555,34.867,35.838,33.765,38.418,34.616
34.525,35.193000000000005,35.79,33.703,38.286,34.563
34.495,35.533,35.742,33.641999999999996,38.150999999999996,34.512
34.465,35.882,35.694,33.582,38.015,34.46
34.434,36.235,35.645,33.525,37.878,34.409
34.403,36.588,35.596,33.47,37.742,34.359
34.373000000000005,36.935,35.547,33.416,37.608000000000004,34.31
34.342,37.271,35.498000000000005,33.365,37.477,34.263000000000005
34.312,37.593,35.45,33.314,37.35,34.218
34.281,37.896,35.402,33.265,37.226,34.175
34.249,38.178000000000004,35.356,33.216,37.106,34.135
34.217,38.436,35.312,33.168,36.991,34.096
34.185,38.668,35.269,33.121,36.879,34.059
34.153,38.872,35.229,33.075,36.77,34.023
34.121,39.049,35.192,33.029,36.664,33.99
34.089,39.196999999999996,35.158,32.986,36.561,33.958
34.058,39.316,35.128,32.943000000000005,36.459,33.929
34.028,39.409,35.102,32.900999999999996,36.359,33.9
34.0,39.475,35.080999999999996,32.86,36.260999999999996,33.874
33.975,39.516,35.063,32.819,36.166,33.848
33.951,39.534,35.049,32.779,36.071999999999996,33.824
33.929,39.531,35.038000000000004,32.739000000000004,35.981,33.8
33.908,39.51,35.032,32.699,35.891999999999996,33.775999999999996
33.889,39.471,35.029,32.658,35.806,33.751999999999995
33.872,39.419000000000004,35.03,32.619,35.724000000000004,33.728
33.856,39.353,35.034,32.579,35.646,33.704
33.841,39.277,35.041,32.54,35.573,33.68
33.827,39.192,35.05,32.501999999999995,35.505,33.656
33.813,39.099000000000004,35.062,32.465,35.443000000000005,33.632
33.798,39.0,35.074,32.431999999999995,35.388000000000005,33.607
33.782,38.896,35.086999999999996,32.402,35.339,33.584
33.765,38.788000000000004,35.1,32.379,35.298,33.56
33.747,38.677,35.113,32.365,35.264,33.538000000000004
33.728,38.563,35.124,32.361,35.236999999999995,33.516
33.708,38.449,35.134,32.373000000000005,35.218,33.496
33.687,38.334,35.143,32.403,35.205999999999996,33.477
33.664,38.22,35.149,32.454,35.202,33.46
33.64,38.106,35.153,32.531,35.205,33.443000000000005
33.615,37.993,35.155,32.637,35.214,33.428000000000004
33.589,37.881,35.155,32.775,35.229,33.414
33.562,37.771,35.152,32.946999999999996,35.249,33.4
33.535,37.662,35.146,33.154,35.272,33.387
33.507,37.555,35.138000000000005,33.397,35.299,33.375
33.48,37.45,35.126999999999995,33.675,35.328,33.361999999999995
33.454,37.346,35.111999999999995,33.986999999999995,35.359,33.349000000000004
33.428000000000004,37.243,35.095,34.33,35.391,33.335
33.402,37.141,35.075,34.701,35.424,33.32
33.378,37.041,35.053000000000004,35.095,35.455999999999996,33.304
33.356,36.94,35.028,35.509,35.486999999999995,33.288000000000004
33.335,36.841,35.0,35.936,35.514,33.27
33.317,36.743,34.97,36.372,35.538000000000004,33.251
33.301,36.646,34.938,36.809,35.558,33.23
33.289,36.551,34.904,37.243,35.571999999999996,33.209
33.282,36.459,34.868,37.666,35.580999999999996,33.186
33.28,36.369,34.83,38.073,35.585,33.162
33.286,36.283,34.791,38.46,35.582,33.138000000000005
33.3,36.201,34.751,38.821999999999996,35.571999999999996,33.115
33.324,36.123000000000005,34.71,39.154,35.556,33.093
33.36,36.049,34.668,39.454,35.534,33.075
33.408,35.98,34.625,39.719,35.507,33.061
33.471,35.916,34.582,39.949,35.474000000000004,33.053000000000004
33.55,35.856,34.539,40.141999999999996,35.436,33.054
33.644,35.802,34.497,40.299,35.395,33.066
33.754,35.754,34.455999999999996,40.422,35.35,33.092
33.88,35.71,34.416,40.510999999999996,35.301,33.134
34.022,35.673,34.376999999999995,40.568000000000005,35.249,33.195
34.178000000000004,35.64,34.339,40.595,35.194,33.277
34.347,35.613,34.303000000000004,40.595,35.135999999999996,33.383
34.527,35.591,34.268,40.57,35.076,33.514
34.714,35.574,34.234,40.523,35.013000000000005,33.671
34.908,35.561,34.2,40.455999999999996,34.948,33.854
35.104,35.552,34.167,40.371,34.882,34.063
35.299,35.547,34.134,40.27,34.814,34.295
35.492,35.545,34.103,40.156,34.744,34.55
35.678000000000004,35.545,34.071999999999996,40.031,34.674,34.824
35.854,35.548,34.041,39.896,34.602,35.114000000000004
36.02,35.552,34.012,39.755,34.53,35.416
36.173,35.556,33.984,39.607,34.457,35.727
36.311,35.561,33.955999999999996,39.457,34.383,36.04
36.433,35.564,33.93,39.303000000000004,34.308,36.352
36.538000000000004,35.566,33.904,39.15,34.234,36.658
36.626,35.565,33.88,38.996,34.159,36.954
36.696,35.562,33.857,38.845,34.084,37.236999999999995
36.749,35.555,33.834,38.695,34.009,37.503
36.786,35.545,33.812,38.549,33.933,37.749
36.806999999999995,35.531,33.79,38.405,33.858000000000004,37.973
36.813,35.513000000000005,33.768,38.264,33.784,38.174
36.806999999999995,35.49,33.745,38.126,33.71,38.35
36.789,35.465,33.722,37.991,33.639,38.499
36.762,35.436,33.698,37.858000000000004,33.569,38.622
36.726,35.404,33.674,37.726,33.501,38.718
36.684,35.368,33.649,37.595,33.436,38.787
36.635999999999996,35.330999999999996,33.624,37.464,33.373000000000005,38.830999999999996
36.584,35.29,33.597,37.332,33.313,38.851
36.528,35.248000000000005,33.57,37.2,33.255,38.848
36.469,35.203,33.541,37.068000000000005,33.199,38.825
36.409,35.156,33.512,36.935,33.145,38.785
36.347,35.107,33.483000000000004,36.803000000000004,33.094,38.728
36.285,35.056999999999995,33.453,36.673,33.044000000000004,38.658
36.222,35.006,33.424,36.544000000000004,32.996,38.577
36.16,34.952,33.394,36.419000000000004,32.95,38.486999999999995
36.097,34.898,33.365,36.298,32.906,38.389
36.035,34.841,33.338,36.181999999999995,32.864000000000004,38.285
35.974000000000004,34.784,33.313,36.073,32.824,38.177
35.913000000000004,34.725,33.292,35.97,32.787,38.065
35.852,34.665,33.275,35.876,32.754,37.951
35.793,34.604,33.265,35.791,32.723,37.835
35.733000000000004,34.543,33.262,35.715,32.694,37.719
35.674,34.481,33.268,35.648,32.669000000000004,37.603
35.615,34.418,33.287,35.591,32.647,37.486999999999995
35.555,34.355,33.318000000000005,35.545,32.626999999999995,37.374
35.495,34.292,33.365,35.508,32.609,37.262
35.434,34.228,33.428000000000004,35.481,32.593,37.152
35.372,34.164,33.508,35.461999999999996,32.58,37.045
35.311,34.101,33.606,35.451,32.567,36.94
35.25,34.039,33.722,35.446,32.555,36.838
35.189,33.977,33.857,35.446999999999996,32.544000000000004,36.736999999999995
35.13,33.916,34.009,35.453,32.533,36.637
35.071999999999996,33.857,34.177,35.461999999999996,32.522,36.538000000000004
35.016,33.798,34.361,35.476,32.51,36.44
34.963,33.741,34.556,35.492,32.499,36.343
34.914,33.685,34.762,35.51,32.486999999999995,36.247
34.869,33.63,34.975,35.53,32.475,36.152
34.828,33.576,35.193000000000005,35.55,32.464,36.059
34.792,33.525,35.411,35.57,32.454,35.966
34.76,33.475,35.628,35.588,32.446,35.876
34.734,33.426,35.84,35.604,32.44,35.788000000000004
34.713,33.38,36.045,35.617,32.44,35.703
34.696999999999996,33.335,36.239000000000004,35.626999999999995,32.448,35.621
34.687,33.291,36.42,35.634,32.466,35.544000000000004
34.681,33.249,36.586999999999996,35.637,32.497,35.472
34.68,33.208,36.738,35.635,32.546,35.405
34.681999999999995,33.168,36.871,35.629,32.616,35.345
34.689,33.129,36.986999999999995,35.616,32.708,35.292
34.698,33.091,37.084,35.598,32.827,35.246
34.71,33.053000000000004,37.162,35.574,32.973,35.208
34.724000000000004,33.015,37.223,35.544000000000004,33.148,35.179
34.741,32.977,37.266,35.507,33.354,35.157
34.758,32.939,37.294000000000004,35.464,33.589,35.144
34.775999999999996,32.9,37.306,35.416,33.853,35.139
34.795,32.86,37.305,35.363,34.144,35.141
34.812,32.819,37.291,35.305,34.46,35.15
34.828,32.778,37.266999999999996,35.244,34.797,35.164
34.843,32.736,37.234,35.181,35.153,35.183
34.855,32.695,37.192,35.115,35.523,35.205999999999996
34.864000000000004,32.655,37.145,35.048,35.900999999999996,35.232
34.872,32.616,37.092,34.98,36.284,35.259
34.876999999999995,32.582,37.035,34.911,36.667,35.288000000000004
34.88,32.553000000000004,36.976,34.842,37.044000000000004,35.317
34.88,32.532,36.915,34.774,37.411,35.346
34.878,32.521,36.852,34.705,37.763000000000005,35.375
34.874,32.523,36.79,34.637,38.097,35.402
34.867,32.542,36.729,34.569,38.409,35.428000000000004
34.858000000000004,32.578,36.669000000000004,34.501,38.696999999999996,35.451
34.845,32.635999999999996,36.61,34.433,38.958,35.472
34.830999999999996,32.716,36.554,34.366,39.19,35.488
34.813,32.821999999999996,36.499,34.298,39.393,35.501
34.794000000000004,32.954,36.445,34.231,39.565,35.509
34.772,33.111999999999995,36.393,34.165,39.708,35.512
34.749,33.296,36.343,34.099000000000004,39.82,35.51
34.723,33.506,36.293,34.034,39.903,35.503
34.696,33.738,36.245,33.97,39.958,35.49
34.668,33.992,36.196999999999996,33.906,39.986999999999995,35.473
34.64,34.262,36.149,33.843,39.993,35.451
34.611,34.546,36.102,33.781,39.977,35.424
34.583,34.84,36.054,33.721,39.941,35.393
34.555,35.139,36.007,33.661,39.89,35.357
34.528,35.44,35.959,33.604,39.824,35.317
34.501999999999995,35.736999999999995,35.911,33.548,39.746,35.275
34.476,36.027,35.863,33.495,39.658,35.229
34.452,36.306999999999995,35.814,33.443000000000005,39.562,35.181
34.428000000000004,36.573,35.765,33.393,39.459,35.131
34.404,36.821999999999996,35.717,33.344,39.351,35.078
34.381,37.054,35.669000000000004,33.297,39.239000000000004,35.024
34.358000000000004,37.265,35.621,33.251,39.124,34.968
34.335,37.455,35.575,33.205999999999996,39.008,34.91
34.313,37.623000000000005,35.53,33.162,38.89,34.852
34.291,37.766999999999996,35.489000000000004,33.119,38.773,34.792
34.269,37.888000000000005,35.451,33.076,38.657,34.732
34.247,37.986,35.416,33.034,38.54,34.671
34.226,38.062,35.385999999999996,32.992,38.424,34.611
34.204,38.116,35.361,32.951,38.309,34.55
34.181999999999995,38.150999999999996,35.341,32.911,38.193000000000005,34.49
34.16,38.166,35.325,32.872,38.077,34.429
34.138000000000005,38.163000000000004,35.314,32.834,37.959,34.37
34.115,38.144,35.306999999999995,32.798,37.84,34.31
34.093,38.11,35.303000000000004,32.764,37.72,34.251999999999995
34.07,38.063,35.303000000000004,32.733000000000004,37.598,34.194
34.047,38.004,35.305,32.704,37.474000000000004,34.138000000000005
34.024,37.935,35.31,32.681,37.348,34.082
34.001,37.857,35.317,32.664,37.221,34.029
33.978,37.772,35.325,32.656,37.094,33.977
33.955,37.681999999999995,35.335,32.661,36.966,33.928000000000004
33.933,37.588,35.346,32.681,36.84,33.882
33.91,37.49,35.357,32.72,36.714,33.838
33.887,37.391,35.368,32.782,36.591,33.797
33.865,37.29,35.379,32.869,36.47,33.758
33.842,37.189,35.388000000000005,32.984,36.354,33.722
33.82,37.088,35.396,33.13,36.243,33.687
33.797,36.988,35.403,33.309,36.139,33.654
33.774,36.888000000000005,35.408,33.521,36.043,33.622
33.753,36.789,35.41,33.765,35.955999999999996,33.591
33.732,36.691,35.41,34.042,35.876999999999995,33.561
33.711999999999996,36.593,35.408,34.349000000000004,35.808,33.531
33.693000000000005,36.495,35.402,34.681999999999995,35.749,33.501999999999995
33.676,36.396,35.393,35.039,35.699,33.473
33.661,36.297,35.38,35.414,35.658,33.445
33.647,36.198,35.364000000000004,35.802,35.626,33.418
33.635,36.097,35.344,36.198,35.601,33.391999999999996
33.626,35.995,35.321,36.596,35.584,33.367
33.619,35.893,35.295,36.99,35.574,33.343
33.617,35.789,35.266999999999996,37.376,35.568000000000005,33.319
33.619,35.685,35.236,37.747,35.568000000000005,33.297
33.626999999999995,35.58,35.204,38.1,35.571999999999996,33.275999999999996
33.643,35.477,35.17,38.429,35.578,33.255
33.667,35.375,35.135999999999996,38.732,35.588,33.236
33.7,35.275,35.1,39.005,35.6,33.217
33.745,35.179,35.063,39.246,35.613,33.199
33.802,35.088,35.025,39.455,35.626999999999995,33.181999999999995
33.873000000000005,35.001999999999995,34.986,39.63,35.641999999999996,33.166
33.959,34.922,34.946,39.771,35.657,33.150999999999996
34.06,34.848,34.906,39.879,35.671,33.135999999999996
34.177,34.782,34.864000000000004,39.955999999999996,35.685,33.123000000000005
34.309,34.723,34.821999999999996,40.001999999999995,35.696999999999996,33.111
34.455,34.672,34.78,40.019,35.705999999999996,33.099000000000004
34.615,34.628,34.738,40.01,35.711999999999996,33.089
34.785,34.59,34.695,39.976,35.715,33.078
34.963,34.559,34.654,39.921,35.714,33.069
35.149,34.535,34.613,39.846,35.709,33.06
35.338,34.515,34.573,39.754,35.699,33.051
35.529,34.501,34.535,39.647,35.684,33.043
35.719,34.492,34.498000000000005,39.527,35.664,33.035
35.905,34.488,34.463,39.397,35.639,33.027
36.084,34.486999999999995,34.43,39.259,35.609,33.018
36.253,34.49,34.399,39.115,35.573,33.010999999999996
36.411,34.496,34.37,38.965,35.531,33.004
36.556,34.503,34.343,38.813,35.483000000000004,32.999
36.685,34.512,34.318000000000005,38.659,35.43,32.997
36.799,34.52,34.293,38.504,35.371,32.997
36.896,34.529,34.27,38.349000000000004,35.308,33.003
36.976,34.537,34.247,38.196,35.24,33.014
37.039,34.543,34.225,38.043,35.168,33.034
37.086,34.548,34.203,37.893,35.094,33.065
37.117,34.551,34.18,37.744,35.018,33.11
37.132,34.553000000000004,34.158,37.598,34.94,33.171
37.134,34.552,34.135999999999996,37.453,34.861,33.25
37.124,34.549,34.114000000000004,37.311,34.783,33.351
37.104,34.544000000000004,34.092,37.17,34.705999999999996,33.476
37.074,34.536,34.07,37.031,34.63,33.625
37.037,34.525,34.049,36.891999999999996,34.556,33.801
36.994,34.510999999999996,34.028,36.755,34.483000000000004,34.003
36.946,34.493,34.007,36.619,34.413000000000004,34.232
36.894,34.472,33.986999999999995,36.485,34.344,34.485
36.838,34.446999999999996,33.967,36.353,34.277,34.762
36.779,34.42,33.946999999999996,36.224000000000004,34.211,35.059
36.718,34.39,33.927,36.098,34.146,35.374
36.654,34.356,33.908,35.976,34.082,35.702
36.589,34.32,33.888000000000005,35.858000000000004,34.02,36.039
36.522,34.281,33.867,35.747,33.958,36.381
36.455,34.24,33.844,35.641999999999996,33.897,36.724000000000004
36.388000000000005,34.196999999999996,33.821,35.543,33.836999999999996,37.062
36.32,34.152,33.797,35.453,33.778,37.39
36.254,34.106,33.771,35.37,33.72,37.705
36.189,34.06,33.745,35.295,33.664,38.003
36.125,34.013000000000005,33.718,35.229,33.61,38.28
36.064,33.966,33.69,35.171,33.556999999999995,38.534
36.003,33.92,33.663000000000004,35.122,33.506,38.763000000000005
35.945,33.873000000000005,33.637,35.080999999999996,33.458,38.965
35.888000000000005,33.826,33.611,35.049,33.41,39.14
35.830999999999996,33.779,33.588,35.024,33.365,39.287
35.775999999999996,33.732,33.568000000000005,35.006,33.323,39.406
35.72,33.684,33.553000000000004,34.994,33.282,39.498000000000005
35.665,33.635999999999996,33.544000000000004,34.989000000000004,33.244,39.564
35.611,33.586999999999996,33.544000000000004,34.989000000000004,33.208,39.604
35.556999999999995,33.538000000000004,33.555,34.994,33.175,39.621
35.503,33.49,33.579,35.003,33.146,39.616
35.451,33.442,33.619,35.015,33.12,39.591
35.400999999999996,33.395,33.677,35.03,33.097,39.547
35.352,33.349000000000004,33.754,35.047,33.078,39.486999999999995
35.306,33.304,33.85,35.066,33.063,39.413000000000004
35.263000000000005,33.259,33.967,35.085,33.05,39.327
35.224000000000004,33.215,34.105,35.103,33.041,39.23
35.188,33.172,34.263000000000005,35.121,33.035,39.124
35.154,33.13,34.44,35.137,33.031,39.012
35.125,33.088,34.635,35.15,33.029,38.895
35.098,33.048,34.846,35.159,33.029,38.775
35.076,33.008,35.07,35.164,33.029,38.654
35.056999999999995,32.97,35.305,35.164,33.03,38.532
35.042,32.933,35.546,35.159,33.031,38.412
35.031,32.896,35.792,35.147,33.032,38.293
35.025,32.86,36.037,35.129,33.031,38.178000000000004
35.024,32.824,36.278,35.106,33.028,38.065
35.025999999999996,32.789,36.512,35.077,33.024,37.955999999999996
35.032,32.754,36.734,35.042,33.02,37.85
35.041,32.72,36.943000000000005,35.001999999999995,33.016,37.749
35.052,32.686,37.135999999999996,34.958,33.014,37.650999999999996
35.067,32.650999999999996,37.31,34.909,33.018,37.556
35.083,32.617,37.465,34.856,33.029,37.464
35.101,32.582,37.599000000000004,34.799,33.05,37.374
35.12,32.548,37.713,34.739000000000004,33.085,37.287
35.14,32.514,37.806,34.676,33.137,37.201
35.159,32.48,37.878,34.611,33.209,37.117
35.177,32.446,37.931999999999995,34.545,33.305,37.035
35.194,32.414,37.967,34.478,33.428000000000004,36.954
35.209,32.382,37.986,34.409,33.58,36.876
35.222,32.351,37.99,34.341,33.760999999999996,36.801
35.232,32.321999999999996,37.982,34.272,33.974000000000004,36.727
35.24,32.296,37.961999999999996,34.202,34.218,36.657
35.244,32.271,37.934,34.132,34.492,36.591
35.244,32.251,37.899,34.062,34.793,36.528
35.242,32.236,37.858000000000004,33.992,35.118,36.471
35.235,32.229,37.812,33.922,35.465,36.419000000000004
35.226,32.23,37.763000000000005,33.852,35.827,36.374
35.213,32.243,37.711999999999996,33.784,36.201,36.335
35.198,32.27,37.659,33.717,36.580999999999996,36.304
35.18,32.313,37.605,33.650999999999996,36.961999999999996,36.279
35.159,32.376,37.55,33.586999999999996,37.339,36.260999999999996
35.135999999999996,32.459,37.495,33.525,37.707,36.25
35.111999999999995,32.566,37.441,33.465,38.062,36.246
35.085,32.698,37.388000000000005,33.406,38.398,36.248000000000005
35.056999999999995,32.855,37.335,33.349000000000004,38.713,36.256
35.028,33.038000000000004,37.285,33.293,39.001999999999995,36.268
34.999,33.245,37.236,33.239000000000004,39.263000000000005,36.285
34.969,33.477,37.189,33.187,39.493,36.306
34.94,33.729,37.144,33.135,39.692,36.329
34.911,33.999,37.1,33.084,39.858000000000004,36.354
34.883,34.283,37.058,33.035,39.991,36.38
34.856,34.58,37.016,32.986,40.093,36.405
34.829,34.883,36.974000000000004,32.938,40.163000000000004,36.43
34.803000000000004,35.189,36.931999999999995,32.89,40.204,36.453
34.777,35.493,36.89,32.844,40.216,36.474000000000004
34.751,35.791,36.847,32.797,40.203,36.491
34.726,36.079,36.802,32.751,40.166,36.504
34.7,36.354,36.755,32.705999999999996,40.109,36.512
34.673,36.611,36.705999999999996,32.66,40.034,36.515
34.647,36.848,36.656,32.615,39.943000000000005,36.510999999999996
34.621,37.062,36.603,32.57,39.841,36.5
34.595,37.253,36.549,32.525,39.728,36.483000000000004
34.569,37.418,36.495,32.48,39.609,36.457
34.543,37.558,36.44,32.435,39.485,36.424
34.519,37.673,36.385,32.389,39.358000000000004,36.384
34.494,37.764,36.330999999999996,32.344,39.229,36.336
34.47,37.833,36.279,32.299,39.1,36.282
34.446999999999996,37.881,36.23,32.255,38.972,36.222
34.423,37.91,36.184,32.211999999999996,38.845,36.157
34.4,37.921,36.141999999999996,32.172,38.721,36.088
34.376999999999995,37.916,36.105,32.137,38.6,36.016
34.354,37.897,36.071999999999996,32.108000000000004,38.482,35.942
34.330999999999996,37.865,36.044000000000004,32.088,38.367,35.866
34.308,37.821999999999996,36.021,32.08,38.254,35.789
34.285,37.769,36.003,32.085,38.145,35.71
34.262,37.708,35.99,32.108000000000004,38.036,35.631
34.239000000000004,37.64,35.981,32.152,37.929,35.552
34.217,37.567,35.977,32.22,37.824,35.472
34.195,37.488,35.976,32.315,37.718,35.393
34.175,37.406,35.979,32.439,37.614000000000004,35.314
34.154,37.321,35.984,32.593,37.509,35.236999999999995
34.135,37.233000000000004,35.993,32.78,37.403,35.16
34.116,37.144,36.001999999999995,32.997,37.298,35.084
34.097,37.055,36.013000000000005,33.246,37.193000000000005,35.009
34.078,36.965,36.024,33.523,37.089,34.936
34.059,36.876,36.034,33.827,36.986,34.865
34.04,36.788000000000004,36.043,34.153,36.885,34.794000000000004
34.022,36.7,36.051,34.499,36.788000000000004,34.726
34.003,36.614000000000004,36.056,34.859,36.694,34.659
33.985,36.529,36.06,35.227,36.605,34.593
33.967,36.445,36.061,35.6,36.523,34.53
33.949,36.361,36.06,35.97,36.446999999999996,34.468
33.931,36.278,36.056,36.334,36.38,34.409
33.914,36.195,36.049,36.685,36.321999999999996,34.351
33.898,36.111999999999995,36.038000000000004,37.019,36.272,34.297
33.884,36.029,36.025,37.332,36.232,34.245
33.872,35.945,36.009,37.62,36.201,34.196999999999996
33.865,35.86,35.99,37.881,36.179,34.152
33.861,35.775,35.968,38.111999999999995,36.164,34.111999999999995
33.864000000000004,35.688,35.943000000000005,38.313,36.157,34.076
33.874,35.601,35.916,38.481,36.156,34.044000000000004
33.893,35.515,35.888000000000005,38.618,36.161,34.016999999999996
33.923,35.428000000000004,35.857,38.723,36.171,33.994
33.965,35.344,35.826,38.797,36.185,33.976
34.021,35.260999999999996,35.793,38.842,36.203,33.963
34.093,35.181,35.759,38.86,36.223,33.954
34.18,35.104,35.724000000000004,38.852,36.245,33.948
34.284,35.033,35.688,38.821,36.269,33.946
34.405,34.966,35.652,38.77,36.292,33.946999999999996
34.543,34.906,35.615,38.7,36.315,33.951
34.695,34.852,35.579,38.614000000000004,36.336,33.957
34.861999999999995,34.805,35.542,38.514,36.356,33.966
35.04,34.764,35.506,38.402,36.373000000000005,33.977
35.227,34.731,35.469,38.282,36.385999999999996,33.989000000000004
35.421,34.704,35.431,38.154,36.396,34.003
35.617,34.683,35.393,38.021,36.400999999999996,34.016999999999996
35.813,34.669000000000004,35.355,37.884,36.400999999999996,34.033
36.006,34.66,35.316,37.743,36.396,34.049
36.193000000000005,34.656,35.275999999999996,37.601,36.385999999999996,34.066
36.372,34.657,35.236,37.458,36.371,34.083
36.541,34.661,35.196,37.315,36.35,34.1
36.696999999999996,34.668,35.157,37.172,36.325,34.116
36.84,34.676,35.117,37.03,36.296,34.131
36.966,34.687,35.078,36.89,36.260999999999996,34.145
37.077,34.698,35.039,36.751,36.221,34.156
37.17,34.71,35.001,36.615,36.175,34.164
37.247,34.721,34.964,36.48,36.122,34.17
37.306,34.732,34.928000000000004,36.347,36.063,34.173
37.348,34.742,34.893,36.215,35.997,34.174
37.376,34.751,34.859,36.085,35.925,34.172
37.389,34.758,34.825,35.955,35.848,34.167
37.39,34.763000000000005,34.793,35.826,35.766,34.16
37.379,34.765,34.762,35.696999999999996,35.681,34.15
37.359,34.764,34.732,35.57,35.594,34.135999999999996
37.329,34.76,34.704,35.445,35.505,34.119
37.292,34.753,34.676,35.321999999999996,35.416,34.099000000000004
37.249,34.742,34.649,35.202,35.327,34.076
37.2,34.727,34.622,35.086,35.236999999999995,34.051
37.146,34.709,34.596,34.974000000000004,35.148,34.022
37.089,34.687,34.571,34.868,35.061,33.991
37.029,34.661,34.546,34.766999999999996,34.976,33.959
36.967,34.632,34.521,34.672,34.894,33.925
36.904,34.6,34.496,34.584,34.815,33.891
36.841,34.567,34.472,34.503,34.74,33.858000000000004
36.777,34.531,34.448,34.43,34.668,33.829
36.713,34.493,34.425,34.364000000000004,34.599000000000004,33.806
36.65,34.454,34.400999999999996,34.306999999999995,34.534,33.792
36.586,34.414,34.376999999999995,34.258,34.471,33.789
36.524,34.372,34.353,34.218,34.41,33.802
36.461,34.33,34.329,34.186,34.35,33.832
36.398,34.287,34.304,34.161,34.291,33.883
36.335,34.244,34.279,34.143,34.232,33.959
36.273,34.201,34.253,34.132,34.174,34.062
36.21,34.158,34.228,34.126999999999995,34.116,34.192
36.147,34.115,34.203,34.128,34.058,34.352
36.085,34.073,34.177,34.133,34.0,34.54
36.023,34.03,34.153,34.143,33.943000000000005,34.757
35.963,33.988,34.131,34.155,33.885,35.001999999999995
35.903,33.945,34.111,34.17,33.828,35.272
35.845,33.902,34.095,34.187,33.772,35.566
35.789,33.86,34.084,34.205,33.716,35.881
35.734,33.818000000000005,34.080999999999996,34.222,33.661,36.211
35.681999999999995,33.775999999999996,34.086,34.24,33.609,36.554
35.632,33.735,34.104,34.256,33.558,36.903
35.586,33.695,34.134,34.271,33.509,37.253
35.544000000000004,33.656,34.181,34.282,33.463,37.6
35.505,33.617,34.244,34.291,33.42,37.939
35.472,33.58,34.325,34.295,33.379,38.266
35.442,33.543,34.425,34.294000000000004,33.341,38.576
35.417,33.508,34.544000000000004,34.289,33.305,38.868
35.396,33.473,34.681,34.28,33.271,39.137
35.38,33.439,34.836,34.265,33.239000000000004,39.383
35.368,33.406,35.007,34.246,33.208,39.603
35.36,33.374,35.192,34.221,33.179,39.796
35.355,33.343,35.388000000000005,34.192,33.152,39.961999999999996
35.355,33.313,35.593,34.158,33.126999999999995,40.1
35.357,33.284,35.804,34.119,33.101,40.211
35.363,33.256,36.016,34.077,33.076,40.295
35.371,33.229,36.226,34.032,33.05,40.353
35.382,33.201,36.431,33.984,33.023,40.387
35.396,33.174,36.628,33.931999999999995,32.994,40.399
35.411,33.145,36.814,33.878,32.964,40.39
35.427,33.116,36.988,33.821999999999996,32.933,40.364000000000004
35.444,33.086,37.146,33.762,32.902,40.323
35.461999999999996,33.055,37.288000000000004,33.701,32.872,40.266999999999996
35.48,33.024,37.411,33.637,32.843,40.2
35.497,32.993,37.515,33.571,32.816,40.123000000000005
35.512,32.961,37.6,33.504,32.793,40.037
35.525999999999996,32.929,37.666,33.437,32.775,39.943000000000005
35.536,32.898,37.711999999999996,33.369,32.764,39.845
35.544000000000004,32.867,37.74,33.301,32.763000000000005,39.742
35.548,32.836999999999996,37.753,33.234,32.775,39.635999999999996
35.549,32.808,37.75,33.168,32.801,39.529
35.546,32.781,37.734,33.104,32.845,39.422
35.54,32.755,37.708,33.042,32.91,39.314
35.53,32.732,37.671,32.983000000000004,32.998000000000005,39.207
35.516999999999996,32.711,37.626999999999995,32.925,33.111,39.1
35.501999999999995,32.693000000000005,37.575,32.869,33.251,38.995
35.484,32.68,37.518,32.814,33.42,38.891
35.464,32.673,37.457,32.762,33.617,38.788000000000004
35.442,32.674,37.391999999999996,32.711,33.842,38.687
35.42,32.684,37.325,32.661,34.093,38.586999999999996
35.397,32.705999999999996,37.257,32.613,34.368,38.488
35.373000000000005,32.742,37.189,32.567,34.665,38.389
35.349000000000004,32.795,37.121,32.521,34.979,38.289
35.324,32.866,37.055,32.476,35.308,38.189
35.299,32.957,36.99,32.431999999999995,35.647,38.086999999999996
35.274,33.07,36.929,32.389,35.992,37.984
35.249,33.205999999999996,36.87,32.347,36.339,37.879
35.223,33.366,36.815,32.305,36.681999999999995,37.773
35.196999999999996,33.549,36.763000000000005,32.263000000000005,37.019,37.664
35.171,33.756,36.715,32.221,37.345,37.555
35.146,33.984,36.67,32.179,37.657,37.445
35.121,34.232,36.629,32.137,37.951,37.336999999999996
35.097,34.497,36.589,32.095,38.223,37.232
35.074,34.775999999999996,36.551,32.053000000000004,38.473,37.13
35.051,35.065,36.514,32.010999999999996,38.696,37.034
35.029,35.36,36.477,31.969,38.891,36.945
35.008,35.656,36.439,31.927,39.056999999999995,36.863
34.988,35.95,36.4,31.886,39.193000000000005,36.789
34.968,36.236999999999995,36.36,31.844,39.298,36.724000000000004
34.948,36.514,36.318000000000005,31.803,39.374,36.667
34.929,36.775999999999996,36.275,31.763,39.42,36.62
34.91,37.021,36.23,31.723000000000003,39.439,36.580999999999996
34.891999999999996,37.246,36.185,31.684,39.431,36.551
34.873000000000005,37.45,36.137,31.644000000000002,39.400999999999996,36.529
34.854,37.632,36.089,31.605,39.348,36.515
34.836,37.791,36.041,31.566,39.277,36.508
34.817,37.926,35.993,31.526999999999997,39.189,36.506
34.798,38.039,35.946,31.489,39.088,36.51
34.778,38.13,35.902,31.453000000000003,38.976,36.518
34.758,38.2,35.861,31.42,38.855,36.53
34.736999999999995,38.249,35.823,31.393,38.728,36.545
34.715,38.28,35.788000000000004,31.373,38.597,36.562
34.693000000000005,38.294000000000004,35.757,31.363000000000003,38.464,36.580999999999996
34.67,38.293,35.729,31.365,38.33,36.602
34.646,38.277,35.704,31.384,38.198,36.623000000000005
34.622,38.25,35.683,31.423000000000002,38.067,36.645
34.598,38.211999999999996,35.665,31.484,37.939,36.665
34.574,38.164,35.65,31.57,37.814,36.684
34.55,38.109,35.639,31.683000000000003,37.694,36.7
34.528,38.047,35.63,31.825,37.577,36.713
34.506,37.981,35.624,31.996,37.464,36.723
34.485,37.911,35.621,32.196,37.354,36.727
34.466,37.838,35.621,32.424,37.246,36.727
34.446,37.763000000000005,35.622,32.679,37.14,36.721
34.427,37.687,35.624,32.958,37.033,36.71
34.407,37.61,35.626999999999995,33.257,36.927,36.694
34.388000000000005,37.532,35.63,33.573,36.819,36.672
34.368,37.454,35.633,33.900999999999996,36.71,36.646
34.348,37.375,35.637,34.236999999999995,36.6,36.615
34.328,37.296,35.639,34.575,36.489000000000004,36.58
34.306999999999995,37.217,35.641999999999996,34.911,36.376999999999995,36.541
34.286,37.138000000000005,35.644,35.239000000000004,36.264,36.499
34.266,37.059,35.645,35.556,36.152,36.453
34.247,36.98,35.645,35.858000000000004,36.041,36.404
34.231,36.900999999999996,35.644,36.141,35.931,36.352
34.218,36.821999999999996,35.641,36.400999999999996,35.824,36.298
34.21,36.743,35.635999999999996,36.635999999999996,35.722,36.241
34.208,36.664,35.629,36.845,35.625,36.183
34.214,36.584,35.62,37.025999999999996,35.535,36.123000000000005
34.23,36.505,35.608000000000004,37.178000000000004,35.453,36.061
34.256,36.425,35.594,37.301,35.378,35.998000000000005
34.295,36.345,35.577,37.396,35.312,35.934
34.347,36.265,35.558,37.464,35.254,35.868
34.414,36.185,35.536,37.506,35.205,35.801
34.497,36.106,35.512,37.524,35.163000000000004,35.733000000000004
34.595,36.03,35.483000000000004,37.52,35.13,35.664
34.709,35.955999999999996,35.452,37.496,35.105,35.594
34.839,35.885999999999996,35.416,37.455,35.088,35.524
34.982,35.82,35.376999999999995,37.397,35.078,35.454
35.137,35.758,35.335,37.326,35.075,35.384
35.302,35.701,35.289,37.245,35.078,35.314
35.475,35.649,35.24,37.154,35.086,35.246
35.653,35.601,35.188,37.055,35.098,35.178000000000004
35.833,35.559,35.133,36.951,35.111999999999995,35.113
36.014,35.521,35.076,36.842,35.129,35.05
36.193000000000005,35.486999999999995,35.016,36.729,35.145,34.989000000000004
36.366,35.457,34.955,36.614000000000004,35.162,34.93
36.533,35.431999999999995,34.893,36.496,35.178000000000004,34.874
36.69,35.411,34.83,36.376999999999995,35.191,34.82
36.836,35.394,34.768,36.257,35.203,34.768
36.97,35.381,34.707,36.138000000000005,35.211,34.719
37.09,35.373000000000005,34.648,36.019,35.216,34.673
37.195,35.368,34.591,35.900999999999996,35.217,34.628
37.284,35.366,34.537,35.783,35.214,34.585
37.357,35.368,34.485,35.667,35.205999999999996,34.544000000000004
37.414,35.372,34.437,35.552,35.194,34.504
37.455999999999996,35.376999999999995,34.393,35.437,35.176,34.464
37.483000000000004,35.383,34.352,35.323,35.154,34.426
37.497,35.389,34.314,35.209,35.126999999999995,34.388000000000005
37.499,35.395,34.279,35.096,35.094,34.35
37.49,35.4,34.246,34.983000000000004,35.056999999999995,34.313
37.471,35.404,34.216,34.872,35.016,34.277
37.444,35.407,34.188,34.762,34.97,34.241
37.411,35.408,34.163000000000004,34.653,34.92,34.204
37.371,35.407,34.14,34.547,34.866,34.168
37.326,35.403,34.119,34.443000000000005,34.809,34.132
37.277,35.397,34.1,34.343,34.748000000000005,34.096
37.224000000000004,35.389,34.084,34.248000000000005,34.685,34.06
37.168,35.378,34.07,34.157,34.62,34.025
37.109,35.366,34.056999999999995,34.071999999999996,34.554,33.99
37.049,35.353,34.045,33.994,34.488,33.955
36.986999999999995,35.338,34.033,33.923,34.422,33.92
36.925,35.321,34.02,33.859,34.357,33.885
36.863,35.302,34.007,33.802,34.292,33.849000000000004
36.8,35.281,33.992,33.751999999999995,34.229,33.813
36.736999999999995,35.258,33.976,33.709,34.168,33.777
36.675,35.233000000000004,33.958,33.672,34.108000000000004,33.742
36.613,35.204,33.938,33.641999999999996,34.049,33.705999999999996
36.552,35.173,33.916,33.618,33.992,33.671
36.491,35.14,33.893,33.599000000000004,33.937,33.638000000000005
36.431,35.104,33.869,33.586,33.883,33.605
36.372,35.065,33.844,33.578,33.83,33.573
36.313,35.025,33.819,33.575,33.778,33.543
36.254,34.984,33.796,33.576,33.728,33.514
36.195,34.941,33.775999999999996,33.582,33.679,33.486999999999995
36.135999999999996,34.898,33.76,33.59,33.63,33.461999999999996
36.078,34.855,33.75,33.601,33.582,33.439
36.02,34.812,33.748000000000005,33.614000000000004,33.534,33.419000000000004
35.963,34.77,33.756,33.628,33.486,33.404
35.907,34.729,33.775,33.643,33.438,33.394
35.852,34.689,33.808,33.657,33.39,33.391
35.8,34.65,33.857,33.671,33.341,33.397
35.75,34.611,33.922,33.683,33.293,33.414
35.704,34.571999999999996,34.006,33.693000000000005,33.244,33.446
35.661,34.534,34.107,33.701,33.196,33.493
35.621,34.495,34.226,33.705999999999996,33.149,33.56
35.586999999999996,34.457,34.363,33.708,33.102,33.648
35.556999999999995,34.418,34.516999999999996,33.705999999999996,33.055,33.759
35.532,34.379,34.686,33.7,33.009,33.897
35.512,34.341,34.867,33.69,32.964,34.061
35.497,34.304,35.059,33.677,32.921,34.253
35.488,34.268,35.258,33.659,32.878,34.472
35.484,34.232,35.463,33.639,32.838,34.718
35.486,34.198,35.669000000000004,33.615,32.798,34.989000000000004
35.492,34.164,35.875,33.588,32.76,35.282
35.503,34.131,36.077,33.558,32.724000000000004,35.596
35.516999999999996,34.098,36.271,33.524,32.69,35.925
35.534,34.065,36.455999999999996,33.488,32.658,36.266
35.554,34.033,36.63,33.448,32.628,36.613
35.575,34.001,36.789,33.404,32.599000000000004,36.963
35.597,33.97,36.934,33.358000000000004,32.571,37.309
35.619,33.939,37.063,33.308,32.545,37.647
35.641999999999996,33.908,37.176,33.257,32.52,37.973
35.663000000000004,33.878,37.272,33.203,32.495,38.282
35.683,33.848,37.351,33.148,32.472,38.571999999999996
35.701,33.818000000000005,37.413000000000004,33.093,32.449,38.838
35.717,33.789,37.458,33.037,32.427,39.078
35.731,33.760999999999996,37.488,32.981,32.405,39.29
35.741,33.734,37.503,32.925,32.385,39.475
35.75,33.709,37.505,32.87,32.366,39.63
35.756,33.684,37.494,32.815,32.348,39.757
35.759,33.66,37.471,32.760999999999996,32.334,39.856
35.76,33.637,37.438,32.708,32.323,39.928000000000004
35.758,33.614000000000004,37.397,32.656,32.317,39.975
35.753,33.591,37.349000000000004,32.605,32.319,39.997
35.746,33.568000000000005,37.295,32.554,32.329,39.997
35.736,33.544000000000004,37.236999999999995,32.503,32.351,39.977
35.723,33.52,37.177,32.453,32.385999999999996,39.938
35.705999999999996,33.495,37.117,32.403,32.437,39.883
35.687,33.47,37.056999999999995,32.354,32.506,39.813
35.666,33.445,36.999,32.305,32.594,39.732
35.641999999999996,33.42,36.943000000000005,32.259,32.704,39.64
35.616,33.396,36.889,32.214,32.838,39.54
35.589,33.375,36.838,32.171,32.995,39.434
35.56,33.357,36.79,32.129,33.175,39.321999999999996
35.531,33.344,36.745,32.089,33.379,39.207
35.501,33.34,36.702,32.05,33.605,39.09
35.471,33.345,36.661,32.013000000000005,33.852,38.971
35.441,33.364000000000004,36.621,31.976999999999997,34.116,38.852
35.411,33.398,36.582,31.943,34.396,38.733000000000004
35.381,33.45,36.544000000000004,31.91,34.688,38.615
35.35,33.522,36.506,31.879,34.988,38.497
35.32,33.616,36.468,31.85,35.294000000000004,38.382
35.289,33.734,36.428000000000004,31.823,35.601,38.269
35.258,33.876,36.388000000000005,31.796999999999997,35.904,38.157
35.228,34.042,36.345,31.773000000000003,36.201,38.048
35.196999999999996,34.232,36.302,31.750999999999998,36.488,37.941
35.167,34.445,36.257,31.730999999999998,36.76,37.836
35.138000000000005,34.678000000000004,36.211,31.712,37.015,37.732
35.109,34.93,36.164,31.693,37.251,37.629
35.08,35.198,36.117,31.675,37.465,37.525999999999996
35.052,35.476,36.071,31.656,37.655,37.424
35.024,35.762,36.025,31.635,37.821,37.321
34.995,36.052,35.98,31.613000000000003,37.961,37.218
34.967,36.342,35.938,31.589000000000002,38.076,37.115
34.938,36.626999999999995,35.899,31.561999999999998,38.166,37.012
34.908,36.903,35.863,31.534000000000002,38.232,36.91
34.878,37.169000000000004,35.832,31.503,38.275999999999996,36.808
34.848,37.419000000000004,35.804,31.471,38.297,36.707
34.817,37.653,35.781,31.438000000000002,38.3,36.609
34.786,37.867,35.763000000000005,31.406,38.284,36.513000000000005
34.756,38.06,35.749,31.375999999999998,38.253,36.422
34.726,38.231,35.739000000000004,31.35,38.209,36.335
34.696999999999996,38.379,35.733000000000004,31.331,38.153,36.254
34.669000000000004,38.504,35.731,31.32,38.086999999999996,36.18
34.641999999999996,38.606,35.732,31.322,38.013000000000005,36.114000000000004
34.616,38.686,35.736999999999995,31.338,37.933,36.056999999999995
34.591,38.745,35.745,31.372,37.848,36.008
34.567,38.784,35.755,31.427,37.758,35.969
34.543,38.805,35.766999999999996,31.506,37.664,35.938
34.521,38.81,35.78,31.609,37.569,35.915
34.5,38.799,35.793,31.74,37.471,35.9
34.479,38.775,35.806,31.897,37.373000000000005,35.891
34.459,38.739000000000004,35.818000000000005,32.082,37.274,35.889
34.439,38.693000000000005,35.829,32.293,37.176,35.891
34.42,38.639,35.836999999999996,32.528,37.079,35.897
34.4,38.578,35.843,32.786,36.982,35.907
34.381,38.510999999999996,35.846,33.062,36.887,35.918
34.361999999999995,38.44,35.845,33.353,36.794000000000004,35.931
34.344,38.366,35.841,33.656,36.701,35.945
34.326,38.29,35.834,33.966,36.61,35.959
34.311,38.211999999999996,35.824,34.278,36.519,35.973
34.299,38.134,35.81,34.588,36.429,35.986999999999995
34.291,38.055,35.793,34.891,36.339,35.999
34.29,37.977,35.773,35.184,36.249,36.010999999999996
34.298,37.899,35.75,35.461,36.16,36.022
34.316,37.823,35.724000000000004,35.72,36.069,36.03
34.348,37.747,35.695,35.959,35.979,36.036
34.393,37.672,35.664,36.174,35.888000000000005,36.038000000000004
34.454,37.597,35.63,36.365,35.799,36.036
34.532,37.522,35.595,36.53,35.711,36.029
34.626,37.446999999999996,35.556999999999995,36.67,35.626,36.018
34.739000000000004,37.371,35.518,36.784,35.545,36.001999999999995
34.868,37.294000000000004,35.478,36.874,35.469,35.98
35.014,37.216,35.437,36.941,35.399,35.953
35.174,37.137,35.395,36.986,35.335,35.921
35.347,37.056,35.354,37.010999999999996,35.278,35.883
35.53,36.974000000000004,35.312,37.018,35.228,35.84
35.721,36.891,35.271,37.008,35.186,35.792
35.917,36.806999999999995,35.231,36.983000000000004,35.150999999999996,35.738
36.116,36.723,35.19,36.945,35.123000000000005,35.681
36.314,36.64,35.15,36.897,35.102,35.619
36.51,36.558,35.111,36.839,35.088,35.554
36.699,36.478,35.071,36.773,35.079,35.485
36.88,36.399,35.032,36.7,35.077,35.413000000000004
37.05,36.324,34.993,36.621,35.078,35.339
37.208,36.253,34.955,36.538000000000004,35.085,35.263000000000005
37.351,36.185,34.917,36.45,35.095,35.187
37.478,36.123000000000005,34.879,36.36,35.107,35.11
37.59,36.066,34.841,36.266999999999996,35.122,35.034
37.684,36.015,34.803000000000004,36.172,35.139,34.958
37.763000000000005,35.971,34.764,36.075,35.157,34.882
37.825,35.933,34.725,35.978,35.174,34.806999999999995
37.872,35.903,34.686,35.881,35.191,34.733000000000004
37.904,35.878,34.647,35.784,35.207,34.66
37.922,35.86,34.608000000000004,35.687,35.221,34.588
37.927,35.847,34.569,35.591,35.233000000000004,34.518
37.92,35.84,34.531,35.495,35.241,34.449
37.903,35.836999999999996,34.494,35.399,35.247,34.382
37.876,35.838,34.457,35.304,35.249,34.317
37.842,35.842,34.422,35.21,35.248000000000005,34.254
37.8,35.847,34.388000000000005,35.117,35.244,34.192
37.751999999999995,35.855,34.355,35.025,35.236,34.133
37.7,35.863,34.321999999999996,34.935,35.225,34.076
37.645,35.871,34.29,34.846,35.21,34.02
37.586999999999996,35.878,34.259,34.759,35.19,33.965
37.527,35.885,34.228,34.674,35.167,33.912
37.466,35.89,34.198,34.591,35.14,33.859
37.404,35.893,34.169000000000004,34.512,35.109,33.808
37.341,35.896,34.139,34.436,35.073,33.758
37.277,35.896,34.11,34.364000000000004,35.034,33.71
37.213,35.895,34.08,34.296,34.992,33.663000000000004
37.148,35.891999999999996,34.051,34.233000000000004,34.946,33.617
37.083,35.887,34.023,34.175,34.897,33.574
37.016999999999996,35.881,33.996,34.123000000000005,34.845,33.532
36.95,35.872,33.969,34.077,34.79,33.492
36.882,35.861,33.943000000000005,34.037,34.732,33.454
36.814,35.847,33.919000000000004,34.003,34.671,33.418
36.745,35.83,33.897,33.976,34.608000000000004,33.383
36.676,35.81,33.876999999999995,33.955,34.543,33.35
36.607,35.788000000000004,33.86,33.938,34.478,33.32
36.538000000000004,35.762,33.847,33.927,34.412,33.291
36.469,35.734,33.839,33.92,34.347,33.263000000000005
36.4,35.703,33.836999999999996,33.917,34.283,33.238
36.333,35.67,33.842,33.919000000000004,34.219,33.214
36.266999999999996,35.635,33.856,33.924,34.156,33.191
36.203,35.597,33.881,33.933,34.094,33.17
36.141999999999996,35.559,33.917,33.945,34.034,33.149
36.084,35.519,33.968,33.96,33.974000000000004,33.129
36.031,35.477,34.033,33.978,33.917,33.109
35.981,35.435,34.115,33.997,33.861,33.089
35.936,35.391999999999996,34.214,34.016999999999996,33.806999999999995,33.07
35.897,35.349000000000004,34.329,34.036,33.755,33.049
35.861999999999995,35.306,34.461999999999996,34.054,33.705,33.029
35.832,35.264,34.611999999999995,34.071,33.657,33.008
35.808,35.221,34.775999999999996,34.085,33.611,32.986
35.789,35.179,34.954,34.095,33.566,32.964
35.775999999999996,35.138000000000005,35.143,34.102,33.523,32.94
35.768,35.097,35.341,34.104,33.48,32.917
35.765,35.056,35.546,34.102,33.439,32.891999999999996
35.768,35.016,35.755,34.096,33.398,32.868
35.775,34.976,35.964,34.084,33.357,32.844
35.787,34.935,36.171,34.067,33.318000000000005,32.82
35.803000000000004,34.895,36.373000000000005,34.045,33.278,32.799
35.821,34.855,36.566,34.019,33.239000000000004,32.78
35.843,34.814,36.748000000000005,33.988,33.2,32.766
35.865,34.774,36.917,33.953,33.161,32.758
35.889,34.734,37.07,33.915,33.123000000000005,32.759
35.912,34.694,37.205999999999996,33.874,33.085,32.771
35.935,34.654,37.325,33.830999999999996,33.047,32.797
35.955999999999996,34.616,37.424,33.787,33.01,32.84
35.975,34.577,37.504,33.742,32.975,32.903
35.992,34.54,37.565,33.696999999999996,32.94,32.99
36.006,34.504,37.609,33.650999999999996,32.906,33.105
36.016999999999996,34.469,37.635,33.605,32.873000000000005,33.248000000000005
36.023,34.435,37.646,33.559,32.843,33.421
36.025,34.402,37.641999999999996,33.512,32.813,33.626
36.023,34.369,37.626,33.465,32.785,33.863
36.016999999999996,34.336,37.598,33.419000000000004,32.758,34.13
36.006,34.303000000000004,37.56,33.373000000000005,32.732,34.425
35.992,34.269,37.513000000000005,33.328,32.708,34.746
35.973,34.236,37.46,33.283,32.684,35.09
35.951,34.202,37.402,33.238,32.662,35.453
35.925,34.168,37.339,33.194,32.641,35.829
35.896,34.135,37.272,33.15,32.622,36.214
35.865,34.101,37.204,33.106,32.605,36.603
35.832,34.068000000000005,37.134,33.062,32.591,36.989000000000004
35.797,34.036,37.063,33.018,32.580999999999996,37.368
35.760999999999996,34.004,36.992,32.974000000000004,32.578,37.735
35.723,33.972,36.921,32.93,32.582,38.085
35.683,33.939,36.852,32.885,32.596,38.415
35.644,33.907,36.783,32.84,32.622,38.72
35.605,33.875,36.716,32.795,32.662,38.999
35.566,33.843,36.65,32.749,32.718,39.248000000000005
35.528,33.812,36.586,32.703,32.792,39.466
35.49,33.781,36.524,32.657,32.885999999999996,39.652
35.454,33.751,36.461999999999996,32.611,33.001,39.806
35.419000000000004,33.723,36.402,32.567,33.138000000000005,39.928000000000004
35.385,33.695,36.343,32.523,33.297,40.019
35.351,33.67,36.283,32.48,33.477,40.08
35.319,33.649,36.224000000000004,32.439,33.677,40.113
35.287,33.631,36.164,32.399,33.895,40.121
35.255,33.62,36.104,32.361999999999995,34.13,40.105
35.223,33.617,36.043,32.326,34.378,40.069
35.191,33.625,35.982,32.291,34.637,40.015
35.158,33.646,35.922,32.259,34.903,39.945
35.126,33.683,35.861,32.228,35.173,39.861999999999995
35.093,33.738,35.8,32.198,35.443000000000005,39.769
35.06,33.812,35.739000000000004,32.17,35.711,39.666
35.027,33.909,35.679,32.141,35.971,39.556999999999995
34.995,34.027,35.62,32.113,36.222,39.443000000000005
34.963,34.169000000000004,35.562,32.084,36.46,39.324
34.931,34.333,35.508,32.055,36.681999999999995,39.203
34.900999999999996,34.52,35.455999999999996,32.025,36.885999999999996,39.080999999999996
34.871,34.726,35.408,31.994,37.07,38.958
34.841,34.952,35.365,31.963,37.233000000000004,38.835
34.812,35.193000000000005,35.327,31.932,37.373000000000005,38.714
34.783,35.448,35.293,31.9,37.492,38.595
34.755,35.713,35.264,31.869,37.589,38.478
34.726,35.985,35.24,31.838,37.664,38.364000000000004
34.696999999999996,36.259,35.221,31.807,37.718,38.254
34.668,36.532,35.207,31.779,37.753,38.147
34.639,36.801,35.196,31.753,37.77,38.044000000000004
34.61,37.06,35.187,31.732,37.77,37.944
34.580999999999996,37.308,35.181999999999995,31.717,37.754,37.848
34.552,37.54,35.177,31.711,37.725,37.754
34.523,37.755,35.174,31.715999999999998,37.683,37.662
34.494,37.951,35.171,31.735,37.631,37.57
34.466,38.126,35.169000000000004,31.771,37.569,37.479
34.437,38.279,35.167,31.826,37.501,37.385999999999996
34.41,38.411,35.164,31.904,37.426,37.292
34.382,38.52,35.161,32.006,37.347,37.196
34.354,38.607,35.157,32.134,37.265,37.098
34.326,38.674,35.150999999999996,32.289,37.18,36.998000000000005
34.299,38.722,35.144,32.471,37.093,36.897
34.274,38.75,35.135,32.679,37.005,36.795
34.25,38.762,35.124,32.913000000000004,36.915,36.693000000000005
34.228,38.757,35.11,33.17,36.824,36.593
34.211,38.736999999999995,35.095,33.446999999999996,36.733000000000004,36.495
34.199,38.705,35.077,33.741,36.641999999999996,36.402
34.193000000000005,38.662,35.058,34.048,36.551,36.314
34.196,38.61,35.037,34.363,36.46,36.231
34.209,38.551,35.015,34.684,36.369,36.156
34.234,38.486,34.991,35.004,36.279,36.086999999999996
34.274,38.416,34.965,35.32,36.188,36.025999999999996
34.33,38.343,34.939,35.628,36.097,35.972
34.404,38.266,34.911,35.924,36.007,35.926
34.497,38.188,34.883,36.203,35.917,35.888000000000005
34.61,38.109,34.853,36.464,35.828,35.858000000000004
34.743,38.028,34.821999999999996,36.703,35.74,35.834
34.895,37.946999999999996,34.789,36.919000000000004,35.655,35.817
35.065,37.866,34.756,37.111,35.571,35.806999999999995
35.253,37.784,34.722,37.278,35.49,35.802
35.455999999999996,37.702,34.687,37.419000000000004,35.412,35.801
35.673,37.619,34.65,37.537,35.338,35.805
35.9,37.535,34.613,37.63,35.268,35.811
36.135,37.451,34.574,37.7,35.203,35.819
36.375,37.366,34.534,37.749,35.143,35.828
36.617,37.279,34.493,37.775999999999996,35.089,35.836999999999996
36.858000000000004,37.192,34.45,37.786,35.043,35.846
37.094,37.105,34.407,37.778,35.003,35.853
37.321999999999996,37.016,34.364000000000004,37.755,34.97,35.859
37.541,36.927,34.321,37.72,34.945,35.863
37.747,36.836999999999996,34.278,37.673,34.926,35.866
37.938,36.747,34.236,37.618,34.913000000000004,35.867
38.111,36.658,34.194,37.554,34.905,35.865
38.266,36.571,34.153,37.485,34.904,35.861
38.402,36.485,34.114000000000004,37.412,34.907,35.853
38.516999999999996,36.400999999999996,34.075,37.335,34.915,35.841
38.613,36.321,34.038000000000004,37.255,34.927,35.826
38.69,36.244,34.001999999999995,37.175,34.944,35.805
38.748000000000005,36.171,33.967,37.094,34.965,35.78
38.789,36.104,33.933,37.014,34.988,35.749
38.814,36.042,33.9,36.935,35.014,35.711999999999996
38.824,35.986,33.868,36.857,35.04,35.669000000000004
38.82,35.937,33.836999999999996,36.781,35.067,35.62
38.804,35.895,33.806,36.707,35.094,35.567
38.778,35.859,33.775999999999996,36.635,35.118,35.509
38.742,35.829,33.745,36.565,35.14,35.446
38.698,35.805,33.716,36.496,35.16,35.379
38.647,35.787,33.687,36.428000000000004,35.176,35.308
38.59,35.774,33.659,36.361,35.189,35.234
38.529,35.766,33.631,36.293,35.198,35.156
38.464,35.762,33.604,36.225,35.204,35.077
38.396,35.763000000000005,33.578,36.155,35.205999999999996,34.995
38.327,35.769,33.552,36.084,35.205999999999996,34.912
38.258,35.778,33.525999999999996,36.013000000000005,35.201,34.828
38.188,35.79,33.5,35.94,35.193000000000005,34.744
38.12,35.804,33.473,35.866,35.181,34.66
38.052,35.82,33.446999999999996,35.793,35.163000000000004,34.577
37.985,35.836,33.42,35.721,35.141999999999996,34.495
37.92,35.853,33.391999999999996,35.649,35.115,34.416
37.855,35.87,33.364000000000004,35.58,35.084,34.338
37.791,35.887,33.336999999999996,35.514,35.049,34.262
37.727,35.902,33.309,35.452,35.01,34.19
37.663000000000004,35.915,33.283,35.395,34.967,34.119
37.598,35.925,33.257,35.343,34.922,34.052
37.532,35.931999999999995,33.233000000000004,35.297,34.873000000000005,33.986
37.465,35.936,33.209,35.258,34.823,33.922
37.397,35.937,33.188,35.225,34.771,33.86
37.329,35.935,33.169000000000004,35.199,34.719,33.801
37.260999999999996,35.93,33.153,35.178000000000004,34.666,33.743
37.193000000000005,35.923,33.141999999999996,35.163000000000004,34.613,33.687
37.125,35.913000000000004,33.135,35.152,34.561,33.633
37.059,35.9,33.135999999999996,35.145,34.509,33.58
36.993,35.885,33.145,35.141999999999996,34.458,33.529
36.93,35.866,33.164,35.141999999999996,34.407,33.48
36.868,35.845,33.194,35.145,34.358000000000004,33.433
36.809,35.821,33.238,35.15,34.31,33.385999999999996
36.754,35.794000000000004,33.296,35.158,34.263000000000005,33.341
36.702,35.764,33.37,35.167,34.218,33.297
36.656,35.733000000000004,33.46,35.178000000000004,34.174,33.254
36.615,35.699,33.567,35.188,34.132,33.211999999999996
36.578,35.665,33.69,35.196999999999996,34.091,33.171
36.547,35.629,33.828,35.205,34.051,33.132
36.521,35.593,33.98,35.21,34.014,33.095
36.5,35.556,34.144,35.213,33.978,33.06
36.484,35.518,34.319,35.214,33.943000000000005,33.025999999999996
36.472,35.48,34.501999999999995,35.211,33.911,32.994
36.466,35.442,34.69,35.205,33.881,32.963
36.464,35.403,34.879,35.196,33.853,32.934
36.466,35.361999999999995,35.066,35.184,33.826,32.905
36.472,35.321,35.249,35.169000000000004,33.802,32.878
36.481,35.279,35.425,35.150999999999996,33.779,32.851
36.493,35.236,35.592,35.131,33.757,32.824
36.507,35.191,35.747,35.108000000000004,33.736,32.797
36.522,35.146,35.888000000000005,35.082,33.717,32.771
36.539,35.099000000000004,36.014,35.054,33.699,32.745
36.556,35.051,36.124,35.024,33.684,32.719
36.574,35.001999999999995,36.217,34.992,33.671,32.694
36.591,34.952,36.294000000000004,34.955999999999996,33.661,32.669000000000004
36.608000000000004,34.900999999999996,36.354,34.919000000000004,33.652,32.644
36.622,34.849000000000004,36.399,34.878,33.646,32.621
36.634,34.796,36.429,34.835,33.641,32.598
36.643,34.744,36.445,34.79,33.637,32.577
36.648,34.691,36.449,34.742,33.634,32.556999999999995
36.648,34.638000000000005,36.443000000000005,34.693000000000005,33.631,32.538000000000004
36.644,34.586,36.428000000000004,34.641999999999996,33.628,32.522
36.634,34.534,36.405,34.589,33.624,32.507
36.619,34.483000000000004,36.374,34.536,33.62,32.495
36.599000000000004,34.433,36.338,34.481,33.615,32.486
36.571999999999996,34.384,36.297,34.427,33.609,32.481
36.541,34.336999999999996,36.251999999999995,34.372,33.603,32.481
36.505,34.291,36.205,34.318000000000005,33.596,32.49
36.465,34.247,36.156,34.264,33.586999999999996,32.508
36.422,34.205,36.107,34.211999999999996,33.579,32.539
36.375,34.165,36.056999999999995,34.161,33.569,32.586
36.326,34.126999999999995,36.008,34.111,33.559,32.652
36.275,34.092,35.96,34.063,33.548,32.739000000000004
36.223,34.058,35.913000000000004,34.016,33.536,32.851
36.17,34.025999999999996,35.868,33.971,33.524,32.989000000000004
36.118,33.996,35.824,33.926,33.513000000000005,33.156
36.065,33.967,35.783,33.882,33.504,33.353
36.014,33.941,35.743,33.838,33.498000000000005,33.58
35.963,33.916,35.704,33.794000000000004,33.497,33.836999999999996
35.913000000000004,33.893,35.666,33.751,33.504,34.121
35.865,33.871,35.629,33.708,33.519,34.431
35.817,33.849000000000004,35.591,33.665,33.547,34.762
35.771,33.827,35.554,33.623000000000005,33.59,35.11
35.726,33.806,35.516,33.58,33.649,35.472
35.681999999999995,33.784,35.476,33.539,33.728,35.841
35.639,33.763000000000005,35.435,33.497,33.828,36.213
35.598,33.744,35.391999999999996,33.457,33.951,36.583
35.558,33.726,35.346,33.417,34.096,36.945
35.519,33.711999999999996,35.298,33.379,34.263000000000005,37.293
35.482,33.703,35.248000000000005,33.341,34.453,37.625
35.445,33.702,35.196999999999996,33.305,34.663000000000004,37.934
35.408,33.711,35.144,33.27,34.891999999999996,38.219
35.371,33.732,35.091,33.236,35.137,38.477
35.333,33.769,35.039,33.203,35.396,38.705
35.295,33.823,34.986999999999995,33.171,35.664,38.903
35.256,33.898,34.938,33.14,35.94,39.071
35.218,33.995,34.891,33.11,36.218,39.207
35.18,34.116,34.846,33.079,36.496,39.313
35.141999999999996,34.260999999999996,34.805,33.048,36.769,39.389
35.106,34.431,34.768,33.018,37.034,39.437
35.071,34.626,34.734,32.986999999999995,37.287,39.458
35.036,34.843,34.705,32.957,37.525,39.454
35.003,35.082,34.679,32.927,37.746,39.427
34.97,35.34,34.657,32.897,37.946999999999996,39.38
34.937,35.613,34.639,32.868,38.126999999999995,39.315
34.905,35.898,34.624,32.841,38.284,39.235
34.873000000000005,36.19,34.611999999999995,32.816,38.418,39.141
34.84,36.485,34.604,32.794000000000004,38.529,39.038000000000004
34.808,36.779,34.598,32.775,38.618,38.925
34.775,37.067,34.595,32.760999999999996,38.685,38.806
34.742,37.347,34.592,32.751999999999995,38.731,38.681
34.709,37.615,34.591,32.75,38.758,38.553000000000004
34.675,37.868,34.59,32.758,38.766999999999996,38.423
34.641,38.103,34.589,32.777,38.76,38.292
34.606,38.32,34.589,32.811,38.739000000000004,38.161
34.573,38.516,34.586999999999996,32.86,38.704,38.032
34.539,38.69,34.585,32.929,38.659,37.905
34.508,38.842,34.582,33.019,38.605,37.781
34.478,38.97,34.577,33.132,38.544000000000004,37.661
34.452,39.076,34.571999999999996,33.27,38.477,37.545
34.43,39.161,34.565,33.433,38.406,37.433
34.413000000000004,39.224000000000004,34.555,33.622,38.330999999999996,37.325
34.402,39.266999999999996,34.544000000000004,33.836,38.255,37.221
34.400999999999996,39.292,34.53,34.074,38.177,37.121
34.41,39.3,34.513000000000005,34.333,38.099000000000004,37.025
34.431,39.292,34.494,34.611,38.021,36.93
34.467,39.27,34.473,34.905,37.945,36.838
34.52,39.235,34.45,35.211,37.871,36.745
34.591,39.191,34.425,35.524,37.798,36.653
34.681999999999995,39.137,34.4,35.84,37.729,36.56
34.794000000000004,39.076,34.373000000000005,36.156,37.662,36.466
34.927,39.009,34.347,36.465,37.597,36.372
35.080999999999996,38.937,34.319,36.765,37.534,36.278
35.255,38.861,34.291,37.052,37.472,36.183
35.446999999999996,38.783,34.263000000000005,37.321999999999996,37.412,36.086999999999996
35.656,38.702,34.234,37.571999999999996,37.354,35.992
35.88,38.62,34.205999999999996,37.801,37.296,35.897
36.115,38.535,34.177,38.005,37.239000000000004,35.804
36.358000000000004,38.449,34.147,38.183,37.183,35.713
36.607,38.361,34.118,38.336,37.128,35.625
36.857,38.273,34.088,38.463,37.073,35.541
37.106,38.183,34.058,38.564,37.019,35.461
37.348,38.092,34.029,38.641,36.966,35.385
37.580999999999996,38.0,34.0,38.695,36.913000000000004,35.315
37.803000000000004,37.905,33.972,38.728,36.861999999999995,35.25
38.009,37.81,33.944,38.742,36.812,35.191
38.2,37.711999999999996,33.918,38.738,36.765,35.138000000000005
38.372,37.613,33.891999999999996,38.717,36.722,35.093
38.525,37.513000000000005,33.867,38.681999999999995,36.681999999999995,35.055
38.658,37.412,33.842,38.634,36.647,35.023
38.771,37.311,33.819,38.575,36.618,34.999
38.863,37.211,33.795,38.507,36.594,34.981
38.935,37.111999999999995,33.771,38.431,36.575,34.969
38.988,37.014,33.748000000000005,38.349000000000004,36.562,34.961999999999996
39.023,36.918,33.724000000000004,38.263000000000005,36.555,34.96
39.042,36.824,33.7,38.172,36.552,34.961
39.045,36.734,33.676,38.079,36.554,34.965
39.034,36.647,33.653,37.985,36.56,34.971
39.010999999999996,36.565,33.631,37.89,36.569,34.978
38.977,36.489000000000004,33.609,37.794000000000004,36.58,34.985
38.931999999999995,36.418,33.588,37.699,36.593,34.993
38.88,36.352,33.569,37.605,36.607,34.999
38.82,36.292,33.55,37.512,36.622,35.004
38.754,36.236999999999995,33.532,37.42,36.637,35.007
38.684,36.187,33.515,37.329,36.652,35.007
38.611,36.141999999999996,33.499,37.241,36.665,35.004
38.535,36.103,33.483000000000004,37.153,36.677,34.998000000000005
38.458,36.069,33.469,37.065,36.686,34.988
38.381,36.04,33.455999999999996,36.978,36.693000000000005,34.974000000000004
38.304,36.016,33.442,36.89,36.696,34.955999999999996
38.228,35.998000000000005,33.429,36.803000000000004,36.696999999999996,34.931999999999995
38.150999999999996,35.983000000000004,33.416,36.714,36.695,34.903
38.076,35.973,33.403,36.625,36.69,34.869
38.001,35.966,33.389,36.535,36.683,34.83
37.927,35.963,33.374,36.445,36.673,34.785
37.854,35.961999999999996,33.358000000000004,36.355,36.659,34.736
37.781,35.961999999999996,33.342,36.264,36.644,34.681999999999995
37.708,35.964,33.324,36.175,36.625,34.625
37.635,35.967,33.306,36.086999999999996,36.604,34.565
37.561,35.969,33.288000000000004,36.001,36.58,34.501999999999995
37.486,35.972,33.27,35.917,36.554,34.438
37.411,35.973,33.251999999999995,35.838,36.524,34.371
37.335,35.973,33.236,35.762,36.491,34.303000000000004
37.258,35.971,33.221,35.692,36.455,34.235
37.181999999999995,35.966,33.209,35.628,36.415,34.166
37.107,35.959,33.201,35.569,36.373000000000005,34.097
37.034,35.95,33.198,35.516999999999996,36.327,34.028
36.961999999999996,35.938,33.201,35.472,36.278,33.96
36.891999999999996,35.923,33.211999999999996,35.434,36.227,33.891
36.826,35.906,33.234,35.404,36.173,33.823
36.762,35.885999999999996,33.266999999999996,35.38,36.117,33.756
36.702,35.863,33.314,35.363,36.06,33.69
36.646,35.836999999999996,33.375,35.352,36.001999999999995,33.624
36.594,35.809,33.452,35.346,35.943000000000005,33.56
36.545,35.779,33.545,35.346,35.884,33.496
36.501,35.747,33.655,35.349000000000004,35.824,33.433
36.461,35.713,33.78,35.356,35.765,33.372
36.426,35.678000000000004,33.92,35.365,35.705999999999996,33.312
36.396,35.641999999999996,34.071999999999996,35.375,35.648,33.254
36.371,35.604,34.236,35.387,35.591,33.198
36.351,35.566,34.409,35.4,35.534,33.145
36.336,35.527,34.586999999999996,35.413000000000004,35.478,33.095
36.326,35.486999999999995,34.768,35.425,35.423,33.047
36.319,35.446,34.949,35.436,35.369,33.003
36.317,35.404,35.126999999999995,35.445,35.316,32.961
36.317,35.361999999999995,35.299,35.452,35.265,32.921
36.32,35.318000000000005,35.463,35.455,35.215,32.884
36.325,35.274,35.616,35.453,35.167,32.849000000000004
36.330999999999996,35.23,35.757,35.446999999999996,35.119,32.814
36.336999999999996,35.185,35.884,35.437,35.073,32.781
36.342,35.14,35.995,35.423,35.025999999999996,32.748000000000005
36.347,35.095,36.091,35.405,34.98,32.716
36.35,35.049,36.171,35.384,34.933,32.684
36.352,35.004,36.234,35.36,34.885999999999996,32.652
36.351,34.959,36.282,35.332,34.839,32.62
36.349000000000004,34.914,36.315,35.301,34.792,32.589
36.345,34.87,36.334,35.268,34.746,32.556999999999995
36.338,34.827,36.34,35.232,34.7,32.525999999999996
36.329,34.784,36.334,35.194,34.655,32.494
36.316,34.743,36.318000000000005,35.153,34.611999999999995,32.463
36.301,34.702,36.293,35.11,34.571,32.431999999999995
36.282,34.663000000000004,36.262,35.064,34.531,32.402
36.26,34.625,36.225,35.016,34.493,32.373000000000005
36.235,34.588,36.183,34.967,34.457,32.344
36.207,34.553000000000004,36.138000000000005,34.917,34.423,32.317
36.175,34.519,36.092,34.866,34.391,32.292
36.141,34.488,36.044000000000004,34.814,34.361999999999995,32.268
36.105,34.458,35.996,34.762,34.336,32.246
36.066,34.43,35.949,34.71,34.314,32.226
36.025,34.404,35.902,34.657,34.295,32.208
35.982,34.38,35.857,34.604,34.28,32.191
35.938,34.359,35.814,34.55,34.268,32.176
35.893,34.339,35.772,34.496,34.26,32.162
35.848,34.321,35.732,34.442,34.254,32.148
35.801,34.305,35.695,34.387,34.25,32.134
35.755,34.291,35.659,34.332,34.247,32.12
35.708,34.278,35.624,34.275999999999996,34.244,32.107
35.66,34.266,35.59,34.221,34.242,32.092
35.611,34.254,35.558,34.167,34.239000000000004,32.077
35.563,34.242,35.525,34.113,34.235,32.062
35.513000000000005,34.23,35.493,34.061,34.231,32.045
35.464,34.216,35.461999999999996,34.01,34.227,32.027
35.416,34.201,35.431,33.961999999999996,34.225,32.008
35.368,34.185,35.4,33.916,34.227,31.988000000000003
35.32,34.168,35.369,33.871,34.234,31.965999999999998
35.273,34.15,35.339,33.829,34.249,31.944000000000003
35.226,34.132,35.309,33.788000000000004,34.274,31.921999999999997
35.18,34.114000000000004,35.28,33.749,34.313,31.901
35.134,34.097,35.251,33.711999999999996,34.367,31.883000000000003
35.088,34.080999999999996,35.223,33.675,34.438,31.869
35.043,34.067,35.195,33.64,34.528,31.86
34.997,34.056,35.168,33.605,34.639,31.86
34.952,34.049,35.141,33.571,34.771,31.871
34.906,34.049,35.114000000000004,33.538000000000004,34.924,31.895
34.861999999999995,34.058,35.089,33.505,35.097,31.935
34.818000000000005,34.078,35.065,33.472,35.288000000000004,31.994
34.775,34.111999999999995,35.042,33.439,35.497,32.075
34.733000000000004,34.164,35.021,33.406,35.719,32.18
34.693000000000005,34.235,35.001,33.373000000000005,35.953,32.31
34.654,34.329,34.984,33.338,36.195,32.467
34.617,34.446999999999996,34.968,33.304,36.443000000000005,32.650999999999996
34.582,34.591,34.954,33.269,36.692,32.861
34.547,34.760999999999996,34.942,33.233000000000004,36.94,33.096
34.514,34.958,34.931999999999995,33.196999999999996,37.183,33.356
34.481,35.18,34.923,33.161,37.419000000000004,33.635999999999996
34.448,35.426,34.916,33.124,37.644,33.935
34.416,35.693000000000005,34.91,33.086,37.856,34.248000000000005
34.385,35.979,34.906,33.049,38.052,34.571
34.355,36.28,34.903,33.010999999999996,38.232,34.899
34.326,36.592,34.902,32.974000000000004,38.394,35.228
34.298,36.911,34.902,32.938,38.538000000000004,35.551
34.271,37.233000000000004,34.904,32.904,38.661,35.866
34.244,37.552,34.906,32.873000000000005,38.765,36.167
34.218,37.865,34.908,32.846,38.849000000000004,36.452
34.193000000000005,38.167,34.911,32.825,38.914,36.717
34.167,38.455,34.913000000000004,32.812,38.96,36.959
34.141,38.725,34.915,32.809,38.988,37.177
34.115,38.975,34.915,32.817,39.0,37.368
34.089,39.203,34.915,32.84,38.995,37.532
34.062,39.406,34.913000000000004,32.879,38.975,37.668
34.035,39.583,34.91,32.936,38.942,37.778
34.009,39.734,34.905,33.015,38.898,37.861
33.983000000000004,39.859,34.898,33.117,38.843,37.919000000000004
33.96,39.958,34.89,33.242,38.781,37.954
33.94,40.032,34.879,33.391999999999996,38.711,37.968
33.925,40.082,34.867,33.566,38.637,37.961999999999996
33.918,40.111999999999995,34.853,33.764,38.558,37.937
33.92,40.122,34.836999999999996,33.984,38.476,37.898
33.934,40.114000000000004,34.819,34.225,38.393,37.844
33.961,40.091,34.799,34.483000000000004,38.309,37.779
34.005,40.054,34.778,34.756,38.225,37.704
34.067,40.005,34.755,35.039,38.141,37.621
34.148,39.945,34.732,35.329,38.059,37.532
34.25,39.876,34.708,35.621,37.978,37.438
34.373000000000005,39.799,34.684,35.911,37.9,37.34
34.516999999999996,39.716,34.659,36.195,37.824,37.238
34.681999999999995,39.626999999999995,34.634,36.469,37.751999999999995,37.135
34.867,39.534,34.609,36.73,37.681999999999995,37.031
35.07,39.437,34.584,36.974000000000004,37.615,36.927
35.288000000000004,39.338,34.558,37.199,37.549,36.824
35.519,39.236999999999995,34.532,37.402,37.485,36.723
35.759,39.134,34.505,37.582,37.422,36.623000000000005
36.004,39.03,34.476,37.739000000000004,37.36,36.527
36.253,38.926,34.446,37.87,37.298,36.433
36.5,38.821,34.414,37.978,37.235,36.343
36.743,38.716,34.381,38.061,37.172,36.256
36.978,38.611,34.347,38.121,37.109,36.172
37.201,38.506,34.311,38.159,37.046,36.092
37.411,38.400999999999996,34.275999999999996,38.177,36.982,36.013000000000005
37.604,38.296,34.24,38.175,36.918,35.936
37.778,38.191,34.205,38.157,36.855,35.861
37.933,38.086999999999996,34.171,38.123000000000005,36.794000000000004,35.786
38.067,37.982,34.139,38.076,36.735,35.711
38.181,37.879,34.108000000000004,38.016999999999996,36.68,35.635999999999996
38.274,37.775,34.079,37.948,36.628,35.56
38.347,37.673,34.052,37.87,36.580999999999996,35.484
38.4,37.571999999999996,34.028,37.786,36.539,35.406
38.435,37.473,34.005,37.696,36.501999999999995,35.328
38.453,37.376999999999995,33.985,37.601,36.471,35.249
38.455,37.284,33.966,37.505,36.446,35.172
38.442,37.196,33.948,37.407,36.425,35.096
38.417,37.111999999999995,33.931999999999995,37.308,36.41,35.022
38.381,37.034,33.916,37.21,36.399,34.952
38.335,36.961,33.9,37.113,36.393,34.885999999999996
38.281,36.894,33.884,37.016999999999996,36.389,34.824
38.221,36.832,33.868,36.922,36.389,34.766999999999996
38.155,36.775,33.852,36.827,36.39,34.715
38.086,36.724000000000004,33.835,36.734,36.393,34.669000000000004
38.014,36.677,33.817,36.641,36.397,34.629
37.941,36.635,33.799,36.548,36.400999999999996,34.594
37.867,36.597,33.78,36.455999999999996,36.405,34.567
37.792,36.564,33.76,36.365,36.409,34.546
37.716,36.534,33.741,36.274,36.412,34.531
37.641,36.508,33.721,36.183,36.414,34.522
37.566,36.486,33.702,36.091,36.415,34.518
37.492,36.468,33.683,35.999,36.414,34.519
37.42,36.454,33.664,35.906,36.412,34.524
37.348,36.444,33.645,35.814,36.407,34.532
37.275999999999996,36.438,33.625,35.722,36.399,34.543
37.205999999999996,36.435,33.605,35.632,36.388000000000005,34.556
37.135,36.434,33.586,35.543,36.375,34.571
37.064,36.435,33.567,35.457,36.358000000000004,34.586
36.993,36.436,33.551,35.374,36.338,34.601
36.921,36.438,33.537,35.296,36.315,34.615
36.848,36.438,33.528,35.222,36.289,34.626999999999995
36.775,36.438,33.525,35.154,36.26,34.638000000000005
36.702,36.436,33.531,35.091,36.23,34.646
36.629,36.431,33.546,35.035,36.198,34.652
36.556,36.424,33.573,34.985,36.165,34.654
36.485,36.414,33.614000000000004,34.942,36.13,34.654
36.415,36.4,33.67,34.906,36.094,34.65
36.347,36.382,33.742,34.875,36.056999999999995,34.641999999999996
36.282,36.361,33.832,34.852,36.019,34.63
36.22,36.336,33.938,34.834,35.979,34.614000000000004
36.162,36.308,34.062,34.821,35.938,34.594
36.108000000000004,36.275999999999996,34.203,34.814,35.895,34.571
36.059,36.242,34.36,34.811,35.852,34.543
36.015,36.205,34.531,34.812,35.808,34.513000000000005
35.976,36.166,34.715,34.817,35.763000000000005,34.478
35.943000000000005,36.125,34.908,34.825,35.719,34.441
35.916,36.083,35.109,34.835,35.675,34.400999999999996
35.895,36.039,35.314,34.848,35.632,34.357
35.879,35.995,35.52,34.861,35.59,34.311
35.867,35.949,35.723,34.875,35.549,34.263000000000005
35.861,35.903,35.921,34.888000000000005,35.509,34.211999999999996
35.858000000000004,35.856,36.111,34.900999999999996,35.47,34.159
35.86,35.81,36.289,34.912,35.431999999999995,34.104
35.865,35.764,36.455,34.921,35.395,34.047
35.874,35.718,36.606,34.929,35.358000000000004,33.989000000000004
35.885,35.671,36.74,34.933,35.321999999999996,33.931
35.898,35.624,36.858000000000004,34.935,35.286,33.873000000000005
35.912,35.576,36.958,34.931999999999995,35.251,33.816
35.927,35.525999999999996,37.04,34.926,35.217,33.759
35.942,35.475,37.106,34.915,35.183,33.704
35.955999999999996,35.423,37.154,34.9,35.149,33.650999999999996
35.969,35.369,37.187,34.88,35.116,33.598
35.98,35.314,37.205,34.855,35.084,33.548
35.989000000000004,35.257,37.21,34.827,35.052,33.499
35.994,35.2,37.204,34.794000000000004,35.02,33.452
35.996,35.141999999999996,37.187,34.759,34.989000000000004,33.407
35.994,35.084,37.161,34.721,34.958,33.364000000000004
35.989000000000004,35.027,37.128,34.68,34.929,33.324
35.979,34.971,37.089,34.638000000000005,34.900999999999996,33.285
35.965,34.917,37.045,34.593,34.874,33.248000000000005
35.946999999999996,34.865,36.997,34.548,34.848,33.213
35.924,34.815,36.946,34.501999999999995,34.821999999999996,33.179
35.896,34.768,36.893,34.455999999999996,34.797,33.148
35.865,34.723,36.839,34.409,34.773,33.119
35.828,34.681,36.784,34.361999999999995,34.749,33.091
35.788000000000004,34.639,36.729,34.315,34.727,33.065
35.744,34.6,36.675,34.268,34.705999999999996,33.041
35.696,34.561,36.621,34.221,34.687,33.019
35.646,34.523,36.568000000000005,34.175,34.668,32.999
35.594,34.485,36.516999999999996,34.128,34.65,32.982
35.539,34.446999999999996,36.467,34.083,34.633,32.967
35.484,34.409,36.419000000000004,34.038000000000004,34.616,32.954
35.427,34.37,36.372,33.993,34.599000000000004,32.944
35.371,34.330999999999996,36.327,33.949,34.582,32.936
35.316,34.291,36.283,33.905,34.565,32.931
35.260999999999996,34.251,36.241,33.861999999999995,34.548,32.928000000000004
35.207,34.21,36.2,33.82,34.53,32.928000000000004
35.155,34.168,36.16,33.778,34.512,32.929
35.104,34.125,36.12,33.736999999999995,34.493,32.931
35.055,34.080999999999996,36.08,33.696,34.474000000000004,32.935
35.007,34.036,36.041,33.656,34.455,32.939
34.96,33.99,36.003,33.617,34.437,32.944
34.915,33.944,35.964,33.578,34.419000000000004,32.948
34.869,33.898,35.926,33.539,34.402,32.951
34.825,33.853,35.889,33.501,34.387,32.953
34.78,33.811,35.852,33.464,34.375,32.955
34.735,33.772,35.817,33.428000000000004,34.367,32.955
34.692,33.739000000000004,35.783,33.393,34.364000000000004,32.955
34.649,33.714,35.749,33.359,34.367,32.953
34.607,33.699,35.718,33.325,34.378,32.95
34.566,33.696,35.688,33.293,34.398,32.946
34.527,33.708,35.66,33.262,34.428000000000004,32.94
34.488,33.738,35.634,33.231,34.472,32.934
34.451,33.788000000000004,35.611999999999995,33.201,34.531,32.926
34.415,33.86,35.592,33.172,34.607,32.918
34.38,33.957,35.577,33.141999999999996,34.702,32.909
34.345,34.078,35.564,33.113,34.816,32.9
34.311,34.226,35.556,33.085,34.949,32.891
34.278,34.399,35.55,33.056,35.101,32.88
34.245,34.599000000000004,35.547,33.029,35.271,32.869
34.211999999999996,34.821999999999996,35.547,33.001999999999995,35.457,32.857
34.179,35.068000000000005,35.549,32.975,35.658,32.844
34.147,35.334,35.553000000000004,32.95,35.871,32.829
34.114000000000004,35.616,35.559,32.925,36.093,32.813
34.080999999999996,35.91,35.567,32.902,36.321999999999996,32.795
34.048,36.213,35.575,32.88,36.555,32.777
34.014,36.519,35.584,32.858000000000004,36.787,32.757
33.98,36.825,35.593,32.836,37.016,32.736
33.946999999999996,37.124,35.603,32.814,37.239000000000004,32.715
33.914,37.414,35.611,32.792,37.452,32.693000000000005
33.883,37.691,35.619,32.769,37.654,32.671
33.853,37.951,35.626,32.746,37.842,32.648
33.825,38.191,35.63,32.722,38.013000000000005,32.625
33.797,38.408,35.633,32.696999999999996,38.168,32.603
33.771,38.603,35.633,32.673,38.304,32.582
33.745,38.773,35.631,32.649,38.42,32.562
33.72,38.917,35.628,32.626,38.516999999999996,32.546
33.696,39.037,35.622,32.605,38.594,32.533
33.672,39.132,35.614000000000004,32.588,38.650999999999996,32.525
33.649,39.203,35.604,32.576,38.689,32.525
33.626999999999995,39.251,35.592,32.571999999999996,38.71,32.534
33.607,39.277,35.578,32.577,38.713,32.553000000000004
33.591,39.283,35.563,32.595,38.701,32.586
33.579,39.271,35.546,32.629,38.675,32.635999999999996
33.573,39.241,35.528,32.679,38.637,32.705999999999996
33.574,39.196,35.508,32.75,38.588,32.797
33.586,39.139,35.486,32.843,38.53,32.911
33.609,39.071999999999996,35.463,32.959,38.466,33.051
33.647,38.996,35.438,33.098,38.396,33.218
33.7,38.914,35.412,33.260999999999996,38.321999999999996,33.411
33.772,38.827,35.385999999999996,33.446,38.246,33.629
33.864000000000004,38.736,35.358000000000004,33.652,38.167,33.871
33.975,38.643,35.33,33.876,38.086999999999996,34.135
34.107,38.548,35.301,34.116,38.007,34.417
34.258,38.453,35.273,34.368,37.927,34.714
34.428000000000004,38.358000000000004,35.244,34.629,37.847,35.023
34.615,38.263000000000005,35.216,34.896,37.768,35.338
34.817,38.169000000000004,35.188,35.163000000000004,37.69,35.656
35.03,38.077,35.16,35.429,37.613,35.972
35.253,37.985,35.132,35.688,37.537,36.283
35.482,37.895,35.105,35.937,37.461,36.583
35.714,37.806999999999995,35.078,36.174,37.387,36.869
35.945,37.72,35.051,36.395,37.314,37.139
36.174,37.634,35.024,36.598,37.24,37.39
36.395,37.549,34.998000000000005,36.78,37.167,37.62
36.608000000000004,37.464,34.973,36.942,37.093,37.828
36.81,37.378,34.948,37.08,37.019,38.012
36.998000000000005,37.292,34.924,37.195,36.943000000000005,38.171
37.171,37.204,34.900999999999996,37.287,36.867,38.306
37.327,37.116,34.878,37.356,36.791,38.418
37.466,37.025999999999996,34.856,37.405,36.715,38.505
37.586,36.934,34.834,37.433,36.639,38.569
37.687,36.841,34.812,37.443000000000005,36.564,38.611999999999995
37.768,36.748000000000005,34.79,37.436,36.491,38.635
37.830999999999996,36.654,34.766999999999996,37.415,36.42,38.64
37.875,36.562,34.745,37.381,36.352,38.629
37.902,36.471,34.722,37.336,36.288000000000004,38.604
37.913000000000004,36.382,34.698,37.281,36.228,38.567
37.909,36.297,34.675,37.218,36.173,38.52
37.893,36.216,34.650999999999996,37.149,36.124,38.465
37.866,36.139,34.626,37.074,36.080999999999996,38.403
37.830999999999996,36.067,34.602,36.996,36.044000000000004,38.335
37.788000000000004,36.001,34.577,36.915,36.013000000000005,38.262
37.74,35.941,34.552,36.832,35.989000000000004,38.185
37.687,35.887,34.527,36.749,35.97,38.106
37.63,35.839,34.501999999999995,36.666,35.957,38.025
37.571999999999996,35.798,34.477,36.584,35.95,37.943000000000005
37.510999999999996,35.762,34.452,36.504,35.946999999999996,37.861
37.45,35.733000000000004,34.426,36.425,35.948,37.78
37.389,35.71,34.400999999999996,36.348,35.953,37.7
37.327,35.691,34.376,36.273,35.96,37.623000000000005
37.265,35.678000000000004,34.35,36.2,35.97,37.547
37.203,35.67,34.325,36.128,35.98,37.474000000000004
37.141999999999996,35.665,34.299,36.058,35.991,37.403
37.08,35.664,34.274,35.989000000000004,36.001,37.334
37.018,35.666,34.249,35.922,36.010999999999996,37.266999999999996
36.955,35.67,34.224000000000004,35.856,36.019,37.201
36.891,35.675,34.201,35.79,36.025,37.135999999999996
36.826,35.68,34.179,35.725,36.028,37.071
36.759,35.684,34.158,35.659,36.029,37.005
36.69,35.688,34.141,35.592,36.027,36.937
36.62,35.689,34.126999999999995,35.523,36.021,36.869
36.548,35.688,34.12,35.454,36.012,36.798
36.475,35.684,34.12,35.384,35.999,36.725
36.400999999999996,35.676,34.129,35.313,35.982,36.650999999999996
36.327,35.665,34.150999999999996,35.244,35.961,36.574
36.254,35.65,34.186,35.175,35.935,36.496
36.181999999999995,35.63,34.236999999999995,35.11,35.906,36.417
36.111999999999995,35.605,34.304,35.047,35.874,36.339
36.044000000000004,35.576,34.389,34.988,35.838,36.260999999999996
35.981,35.542,34.492,34.934,35.8,36.185
35.921,35.504,34.613,34.885,35.759,36.111
35.867,35.461,34.75,34.842,35.715,36.041
35.817,35.415,34.903,34.805,35.668,35.975
35.774,35.366,35.069,34.774,35.62,35.914
35.736,35.315,35.246,34.748000000000005,35.569,35.858000000000004
35.704,35.263000000000005,35.431,34.728,35.516,35.808
35.678000000000004,35.21,35.622,34.714,35.461999999999996,35.765
35.659,35.156,35.816,34.705,35.407,35.729
35.645,35.104,36.009,34.701,35.352,35.7
35.635999999999996,35.051,36.199,34.701,35.296,35.677
35.633,35.0,36.383,34.707,35.24,35.661
35.635,34.949,36.558,34.715,35.183,35.652
35.641,34.899,36.721,34.727,35.126999999999995,35.648
35.650999999999996,34.85,36.871,34.74,35.071,35.648
35.663000000000004,34.801,37.007,34.755,35.015,35.653
35.678000000000004,34.754,37.126999999999995,34.769,34.96,35.66
35.694,34.707,37.231,34.784,34.906,35.67
35.711999999999996,34.662,37.319,34.796,34.854,35.68
35.729,34.617,37.391,34.806999999999995,34.803000000000004,35.691
35.746,34.573,37.446,34.816,34.753,35.7
35.760999999999996,34.53,37.486999999999995,34.823,34.705999999999996,35.708
35.775,34.486999999999995,37.514,34.827,34.661,35.714
35.786,34.444,37.529,34.828,34.618,35.718
35.794000000000004,34.400999999999996,37.532,34.825,34.577,35.719
35.798,34.358000000000004,37.524,34.82,34.537,35.717
35.798,34.315,37.507,34.81,34.498000000000005,35.713
35.794000000000004,34.271,37.483000000000004,34.797,34.461,35.705
35.786,34.226,37.452,34.781,34.423,35.695
35.773,34.181,37.415,34.762,34.385999999999996,35.681999999999995
35.757,34.134,37.374,34.74,34.349000000000004,35.666
35.736,34.086,37.33,34.715,34.313,35.648
35.711,34.037,37.283,34.688,34.277,35.628
35.683,33.986999999999995,37.234,34.659,34.241,35.606
35.652,33.936,37.185,34.628,34.205999999999996,35.582
35.618,33.885,37.135,34.595,34.17,35.556
35.582,33.833,37.085,34.561,34.135,35.528
35.544000000000004,33.782,37.036,34.525,34.1,35.498000000000005
35.504,33.731,36.988,34.489000000000004,34.066,35.465
35.463,33.681,36.942,34.452,34.032,35.429
35.42,33.632,36.897,34.415,34.0,35.39
35.376,33.584,36.854,34.376,33.968,35.349000000000004
35.330999999999996,33.536,36.811,34.336999999999996,33.937,35.305
35.286,33.49,36.77,34.296,33.907,35.259
35.239000000000004,33.444,36.729,34.255,33.878,35.211
35.192,33.4,36.688,34.213,33.85,35.161
35.145,33.357,36.646,34.17,33.823,35.109
35.097,33.315,36.603,34.126999999999995,33.796,35.056999999999995
35.049,33.275,36.559,34.084,33.77,35.004
35.0,33.236,36.513000000000005,34.041,33.745,34.95
34.951,33.198,36.465,33.998000000000005,33.719,34.896
34.900999999999996,33.162,36.415,33.955999999999996,33.694,34.843
34.85,33.126999999999995,36.361999999999995,33.913000000000004,33.668,34.789
34.799,33.096,36.309,33.87,33.641999999999996,34.736999999999995
34.748000000000005,33.068000000000005,36.254,33.826,33.616,34.686
34.696999999999996,33.047,36.198,33.782,33.589,34.635
34.646,33.035,36.141999999999996,33.736999999999995,33.562,34.585
34.595,33.034,36.086,33.691,33.534,34.536
34.545,33.047,36.031,33.646,33.508,34.488
34.495,33.076,35.979,33.602,33.482,34.441
34.446,33.124,35.928000000000004,33.559,33.458,34.396
34.397,33.192,35.881,33.516999999999996,33.436,34.352
34.35,33.282,35.836,33.476,33.419000000000004,34.31
34.303000000000004,33.395,35.796,33.438,33.405,34.271
34.258,33.53,35.759,33.400999999999996,33.398,34.233000000000004
34.213,33.687,35.727,33.366,33.398,34.198
34.17,33.866,35.699,33.332,33.407,34.166
34.129,34.064,35.675,33.299,33.427,34.135999999999996
34.089,34.279,35.655,33.266999999999996,33.46,34.11
34.051,34.509,35.639,33.236999999999995,33.508,34.085
34.015,34.751999999999995,35.626,33.207,33.573,34.063
33.981,35.001999999999995,35.617,33.178000000000004,33.655,34.043
33.948,35.256,35.61,33.150999999999996,33.756,34.024
33.917,35.510999999999996,35.607,33.124,33.876,34.008
33.885999999999996,35.763000000000005,35.606,33.097,34.014,33.993
33.857,36.008,35.607,33.071,34.171,33.979
33.83,36.242,35.609,33.046,34.345,33.967
33.803000000000004,36.461999999999996,35.613,33.021,34.535,33.955
33.778,36.667,35.619,32.996,34.738,33.945
33.753,36.853,35.625,32.972,34.953,33.936
33.728,37.019,35.631,32.949,35.176,33.928000000000004
33.704,37.163000000000004,35.635999999999996,32.927,35.405,33.922
33.679,37.284,35.64,32.908,35.635999999999996,33.918
33.655,37.383,35.643,32.89,35.866,33.915
33.63,37.459,35.641999999999996,32.875,36.091,33.914
33.605,37.514,35.639,32.861,36.309,33.915
33.58,37.548,35.633,32.85,36.516,33.917
33.555,37.563,35.622,32.84,36.71,33.92
33.53,37.562,35.608000000000004,32.832,36.889,33.924
33.504,37.545,35.59,32.827,37.049,33.928000000000004
33.478,37.515,35.569,32.826,37.191,33.931999999999995
33.453,37.475,35.545,32.827,37.312,33.936
33.43,37.425,35.519,32.834,37.412,33.939
33.408,37.367,35.49,32.848,37.491,33.941
33.389,37.302,35.461,32.87,37.55,33.941
33.375,37.233000000000004,35.431,32.902,37.59,33.94
33.367,37.159,35.400999999999996,32.946,37.611,33.938
33.367,37.083,35.37,33.004,37.616,33.934
33.376,37.004,35.34,33.078,37.606,33.929
33.397,36.925,35.31,33.17,37.583,33.922
33.429,36.845,35.282,33.281,37.549,33.914
33.477,36.765,35.255,33.411,37.505,33.904
33.54,36.686,35.229,33.56,37.455,33.891999999999996
33.62,36.607,35.204,33.727,37.4,33.878
33.718,36.529,35.181,33.909,37.34,33.864000000000004
33.835,36.451,35.16,34.105,37.277,33.849000000000004
33.971,36.373000000000005,35.139,34.313,37.211999999999996,33.832
34.126,36.296,35.118,34.529,37.146,33.815
34.299,36.218,35.097,34.751,37.08,33.797
34.489000000000004,36.139,35.075,34.976,37.014,33.779
34.694,36.06,35.052,35.199,36.949,33.76
34.912,35.979,35.027,35.417,36.884,33.741
35.141,35.898,35.001,35.628,36.82,33.721
35.376,35.816,34.975,35.828,36.758,33.702
35.615,35.733000000000004,34.949,36.015,36.696999999999996,33.683
35.854,35.649,34.923,36.186,36.637,33.664
36.09,35.564,34.897,36.341,36.579,33.645
36.319,35.479,34.873000000000005,36.478,36.52,33.629
36.538000000000004,35.393,34.849000000000004,36.597,36.463,33.615
36.745,35.308,34.827,36.696999999999996,36.405,33.605
36.937,35.225,34.806,36.778,36.347,33.6
37.111999999999995,35.141999999999996,34.787,36.841,36.289,33.603
37.269,35.062,34.768,36.885999999999996,36.23,33.614000000000004
37.406,34.986,34.75,36.915,36.17,33.635999999999996
37.523,34.912,34.733000000000004,36.928000000000004,36.109,33.672
37.62,34.843,34.715,36.927,36.046,33.723
37.696,34.779,34.696999999999996,36.914,35.982,33.791
37.753,34.722,34.678000000000004,36.889,35.917,33.879
37.792,34.67,34.659,36.855,35.851,33.989000000000004
37.813,34.626,34.638000000000005,36.812,35.786,34.121
37.819,34.588,34.616,36.762,35.722,34.275999999999996
37.811,34.556,34.594,36.707,35.659,34.454
37.79,34.53,34.571,36.647,35.598,34.654
37.759,34.509,34.547,36.583,35.54,34.876
37.718,34.493,34.523,36.516999999999996,35.486,35.116
37.669000000000004,34.482,34.499,36.448,35.436,35.372
37.614000000000004,34.476,34.475,36.378,35.391,35.641
37.554,34.473,34.452,36.306999999999995,35.353,35.918
37.491,34.473,34.429,36.236,35.321,36.201
37.424,34.476,34.407,36.166,35.295,36.484
37.356,34.481,34.385999999999996,36.097,35.275999999999996,36.764
37.287,34.486999999999995,34.366,36.028,35.264,37.037
37.218,34.494,34.347,35.961,35.258,37.298
37.149,34.5,34.329,35.895,35.257,37.546
37.08,34.506,34.311,35.830999999999996,35.262,37.775
37.012,34.510999999999996,34.294000000000004,35.766999999999996,35.271,37.986
36.945,34.513000000000005,34.278,35.703,35.284,38.174
36.879,34.513000000000005,34.262,35.639,35.3,38.34
36.815,34.51,34.247,35.574,35.317,38.482
36.751999999999995,34.504,34.232,35.508,35.336,38.6
36.69,34.495,34.216,35.442,35.355,38.693000000000005
36.628,34.482,34.201,35.374,35.373000000000005,38.762
36.568000000000005,34.467,34.186,35.306,35.389,38.808
36.507,34.448,34.171,35.236999999999995,35.403,38.833
36.445,34.428000000000004,34.156,35.169000000000004,35.414,38.838
36.383,34.404,34.144,35.1,35.421,38.825
36.321,34.379,34.135999999999996,35.033,35.424,38.796
36.258,34.35,34.132,34.968,35.423,38.753
36.194,34.32,34.135999999999996,34.904,35.419000000000004,38.698
36.13,34.286,34.15,34.843,35.41,38.632
36.066,34.249,34.176,34.785,35.398,38.558
36.001999999999995,34.211,34.216,34.73,35.381,38.477
35.939,34.169000000000004,34.271,34.68,35.361999999999995,38.391
35.876999999999995,34.126,34.344,34.635999999999996,35.339,38.303000000000004
35.817,34.080999999999996,34.434,34.596,35.312,38.211999999999996
35.759,34.034,34.543,34.563,35.282,38.121
35.704,33.986,34.668,34.536,35.25,38.031
35.653,33.937,34.81,34.516,35.216,37.942
35.607,33.887,34.965,34.501999999999995,35.181,37.854
35.565,33.836999999999996,35.131,34.494,35.144,37.77
35.527,33.786,35.306999999999995,34.491,35.107,37.688
35.495,33.735,35.49,34.493,35.07,37.609
35.466,33.684,35.675,34.498000000000005,35.033,37.533
35.442,33.634,35.861999999999995,34.507,34.995,37.461
35.422,33.585,36.045,34.519,34.957,37.391
35.407,33.536,36.223,34.532,34.919000000000004,37.323
35.395,33.486999999999995,36.393,34.546,34.881,37.256
35.388000000000005,33.439,36.553000000000004,34.561,34.843,37.19
35.385,33.391,36.7,34.576,34.805,37.123000000000005
35.385,33.344,36.832,34.59,34.766999999999996,37.055
35.388000000000005,33.298,36.949,34.603,34.728,36.985
35.395,33.251999999999995,37.049,34.615,34.689,36.913000000000004
35.403,33.208,37.133,34.625,34.649,36.838
35.413000000000004,33.166,37.199,34.633,34.61,36.760999999999996
35.424,33.124,37.247,34.639,34.57,36.681
35.435,33.084,37.279,34.641,34.531,36.6
35.446999999999996,33.044000000000004,37.295,34.641,34.493,36.518
35.458,33.006,37.296,34.637,34.455,36.436
35.468,32.968,37.284,34.629,34.419000000000004,36.356
35.477,32.931,37.26,34.618,34.383,36.277
35.484,32.894,37.225,34.603,34.348,36.201
35.486999999999995,32.857,37.181999999999995,34.584,34.312,36.129
35.488,32.821,37.132,34.562,34.275999999999996,36.061
35.484,32.784,37.076,34.537,34.24,35.997
35.477,32.749,37.016999999999996,34.51,34.203,35.94
35.465,32.714,36.955,34.479,34.167,35.889
35.45,32.678000000000004,36.891999999999996,34.445,34.131,35.845
35.431,32.643,36.829,34.409,34.095,35.809
35.408,32.606,36.766,34.371,34.061,35.781
35.382,32.568000000000005,36.703,34.33,34.028,35.76
35.352,32.53,36.643,34.288000000000004,33.996,35.747
35.32,32.491,36.584,34.246,33.963,35.74
35.287,32.452,36.528,34.202,33.931,35.739000000000004
35.251,32.412,36.474000000000004,34.159,33.897,35.744
35.215,32.374,36.423,34.117,33.863,35.753
35.179,32.336999999999996,36.375,34.074,33.828,35.765
35.141,32.302,36.329,34.032,33.793,35.78
35.103,32.272,36.286,33.99,33.756,35.796
35.065,32.246,36.245,33.948,33.719,35.814
35.025,32.228,36.205999999999996,33.906,33.681999999999995,35.830999999999996
34.985,32.218,36.168,33.864000000000004,33.644,35.848
34.945,32.219,36.132,33.823,33.606,35.863
34.904,32.233000000000004,36.096,33.782,33.568000000000005,35.876
34.863,32.260999999999996,36.061,33.741,33.53,35.885
34.821,32.306,36.025,33.7,33.493,35.889
34.778,32.369,35.989000000000004,33.66,33.455999999999996,35.89
34.736,32.45,35.952,33.621,33.42,35.885999999999996
34.694,32.55,35.913000000000004,33.582,33.385,35.876999999999995
34.653,32.671,35.873000000000005,33.544000000000004,33.349000000000004,35.863
34.611999999999995,32.811,35.830999999999996,33.507,33.314,35.845
34.571,32.969,35.788000000000004,33.47,33.279,35.821999999999996
34.531,33.143,35.745,33.435,33.243,35.796
34.491,33.332,35.7,33.400999999999996,33.208,35.766
34.451,33.531,35.655,33.368,33.173,35.733000000000004
34.411,33.739000000000004,35.61,33.336,33.139,35.699
34.371,33.951,35.565,33.305,33.106,35.663000000000004
34.33,34.165,35.522,33.277,33.074,35.625
34.29,34.376999999999995,35.48,33.251,33.043,35.586999999999996
34.25,34.585,35.44,33.226,33.014,35.549
34.21,34.786,35.403,33.204,32.986999999999995,35.509
34.172,34.977,35.37,33.183,32.963,35.469
34.134,35.156,35.341,33.164,32.943000000000005,35.429
34.097,35.321,35.316,33.145,32.928000000000004,35.389
34.061,35.47,35.295,33.126999999999995,32.921,35.349000000000004
34.025999999999996,35.603,35.279,33.11,32.922,35.309
33.992,35.718,35.265,33.093,32.934,35.27
33.959,35.815,35.255,33.076,32.959,35.23
33.928000000000004,35.895,35.247,33.059,33.0,35.191
33.897,35.957,35.242,33.042,33.058,35.152
33.868,36.003,35.236999999999995,33.025,33.135999999999996,35.111999999999995
33.839,36.034,35.234,33.007,33.233000000000004,35.071999999999996
33.812,36.051,35.232,32.989000000000004,33.351,35.031
33.784,36.054,35.23,32.97,33.491,34.99
33.758,36.046,35.228,32.951,33.650999999999996,34.949
33.73,36.025999999999996,35.227,32.931999999999995,33.83,34.907
33.703,35.997,35.226,32.913000000000004,34.027,34.865
33.675,35.959,35.225,32.894,34.239000000000004,34.823
33.648,35.915,35.224000000000004,32.875,34.464,34.782
33.621,35.864000000000004,35.223,32.856,34.7,34.74
33.594,35.808,35.221,32.839,34.943000000000005,34.699
33.568000000000005,35.747,35.218,32.821999999999996,35.19,34.658
33.542,35.684,35.214,32.806999999999995,35.436,34.618
33.516,35.618,35.209,32.795,35.68,34.578
33.491,35.551,35.202,32.785,35.917,34.539
33.467,35.483000000000004,35.192,32.779,36.144,34.5
33.443000000000005,35.415,35.181,32.778,36.36,34.461
33.42,35.347,35.167,32.785,36.56,34.422
33.398,35.28,35.150999999999996,32.8,36.745,34.382
33.376999999999995,35.213,35.133,32.827,36.912,34.342
33.357,35.146,35.114000000000004,32.868,37.06,34.3
33.34,35.080999999999996,35.092,32.926,37.189,34.258
33.326,35.015,35.068000000000005,33.003,37.297,34.215
33.317,34.949,35.043,33.101,37.385,34.172
33.314,34.883,35.016,33.221,37.455,34.128
33.319,34.817,34.986999999999995,33.364000000000004,37.506,34.084
33.333,34.751,34.957,33.529,37.541,34.039
33.359,34.685,34.925,33.715,37.559,33.995
33.396,34.619,34.891999999999996,33.92,37.563,33.952
33.446999999999996,34.553000000000004,34.857,34.144,37.554,33.911
33.512,34.488,34.821,34.383,37.533,33.871
33.593,34.424,34.783,34.634,37.501999999999995,33.834
33.69,34.361,34.744,34.893,37.461,33.8
33.804,34.3,34.704,35.157,37.414,33.768
33.933,34.241,34.661,35.423,37.361999999999995,33.739000000000004
34.079,34.184,34.617,35.686,37.305,33.713
34.239000000000004,34.13,34.571999999999996,35.944,37.246,33.688
34.412,34.078,34.525999999999996,36.192,37.184,33.666
34.597,34.031,34.479,36.428000000000004,37.123000000000005,33.646
34.792,33.986,34.433,36.649,37.061,33.628
34.994,33.946,34.388000000000005,36.854,37.001999999999995,33.613
35.201,33.91,34.345,37.04,36.945,33.598
35.41,33.876999999999995,34.304,37.207,36.89,33.585
35.618,33.848,34.266,37.354,36.839,33.574
35.823,33.823,34.23,37.479,36.791,33.563
36.022,33.8,34.196999999999996,37.584,36.747,33.552
36.211999999999996,33.781,34.165,37.667,36.705,33.541
36.391999999999996,33.764,34.135999999999996,37.731,36.667,33.53
36.558,33.751,34.108000000000004,37.775,36.63,33.518
36.711,33.74,34.083,37.801,36.594,33.505
36.848,33.732,34.06,37.811,36.558,33.491
36.968,33.727,34.039,37.806,36.522,33.476
37.071999999999996,33.725,34.02,37.787,36.486,33.46
37.158,33.725,34.003,37.758,36.449,33.442
37.228,33.727,33.988,37.718,36.411,33.422
37.281,33.731,33.973,37.671,36.373000000000005,33.400999999999996
37.319,33.736,33.958,37.617,36.333,33.378
37.341,33.742,33.943000000000005,37.559,36.292,33.354
37.351,33.747,33.927,37.497,36.25,33.328
37.348,33.751999999999995,33.911,37.433,36.208,33.302
37.334,33.755,33.895,37.369,36.167,33.274
37.311,33.758,33.878,37.304,36.126,33.245
37.279,33.758,33.86,37.239000000000004,36.086,33.216
37.242,33.757,33.841,37.175,36.047,33.187
37.198,33.754,33.821,37.113,36.01,33.158
37.150999999999996,33.749,33.8,37.053000000000004,35.975,33.131
37.1,33.74,33.779,36.995,35.942,33.105
37.047,33.73,33.756,36.939,35.912,33.080999999999996
36.992,33.716,33.733000000000004,36.885,35.885,33.062
36.935,33.701,33.709,36.833,35.861999999999995,33.046
36.878,33.684,33.684,36.782,35.842,33.037
36.82,33.665,33.66,36.734,35.826,33.036
36.762,33.644,33.637,36.686,35.814,33.045
36.705,33.622,33.615,36.64,35.806,33.065
36.647,33.599000000000004,33.596,36.595,35.799,33.1
36.591,33.576,33.580999999999996,36.55,35.796,33.150999999999996
36.536,33.551,33.571999999999996,36.506,35.793,33.22
36.482,33.525999999999996,33.57,36.461999999999996,35.792,33.308
36.43,33.5,33.577,36.418,35.791,33.417
36.379,33.474000000000004,33.595,36.374,35.789,33.547
36.33,33.446999999999996,33.625,36.33,35.786,33.698
36.282,33.42,33.669000000000004,36.285,35.781,33.869
36.235,33.393,33.728,36.241,35.775,34.059
36.188,33.367,33.802,36.196999999999996,35.768,34.266999999999996
36.14,33.34,33.891999999999996,36.153,35.759,34.49
36.091,33.314,33.998000000000005,36.109,35.749,34.726
36.041,33.288000000000004,34.119,36.067,35.738,34.972
35.99,33.263000000000005,34.253,36.027,35.726,35.223
35.939,33.239000000000004,34.400999999999996,35.988,35.713,35.477
35.885999999999996,33.215,34.559,35.951,35.699,35.729
35.834,33.192,34.725,35.917,35.684,35.976
35.783,33.17,34.897,35.885999999999996,35.668,36.214
35.733000000000004,33.147,35.071,35.858000000000004,35.650999999999996,36.441
35.685,33.124,35.245,35.833,35.632,36.652
35.641,33.101,35.415,35.811,35.611999999999995,36.846
35.601,33.077,35.58,35.792,35.59,37.021
35.564,33.054,35.735,35.775,35.567,37.175
35.532,33.03,35.881,35.762,35.542,37.306999999999995
