Trial 1:0back,Trial 2:2back,Trial 3:3back,Trial 4:2back,Trial 5:3back,Trial 6:0back
35.848,35.109,34.825,34.117,34.452,34.665
35.849000000000004,35.115,34.805,34.105,34.57,34.646
35.847,35.123000000000005,34.787,34.091,34.689,34.629
35.842,35.134,34.769,34.077,34.808,34.615
35.835,35.147,34.753,34.063,34.927,34.605
35.827,35.162,34.739000000000004,34.051,35.044000000000004,34.599000000000004
35.819,35.177,34.726,34.042,35.155,34.597
35.811,35.191,34.715,34.038000000000004,35.26,34.597
35.803000000000004,35.204,34.705999999999996,34.038000000000004,35.357,34.602
35.795,35.216,34.699,34.045,35.446,34.609
35.788000000000004,35.224000000000004,34.692,34.058,35.525999999999996,34.618
35.782,35.229,34.687,34.078,35.597,34.628
35.774,35.231,34.681999999999995,34.107,35.657,34.638000000000005
35.764,35.229,34.679,34.144,35.708,34.645
35.751999999999995,35.223,34.678000000000004,34.188,35.749,34.65
35.736999999999995,35.215,34.679,34.239000000000004,35.782,34.652
35.72,35.204,34.683,34.296,35.806999999999995,34.650999999999996
35.701,35.191,34.689,34.357,35.827,34.646
35.681999999999995,35.177,34.699,34.423,35.84,34.638000000000005
35.663000000000004,35.162,34.711999999999996,34.49,35.849000000000004,34.625
35.643,35.147,34.729,34.56,35.854,34.607
35.623000000000005,35.131,34.75,34.631,35.855,34.585
35.602,35.115,34.775,34.701,35.855,34.56
35.582,35.098,34.805,34.771,35.854,34.531
35.561,35.08,34.838,34.839,35.851,34.499
35.539,35.061,34.875,34.905,35.847,34.465
35.516,35.042,34.916,34.968,35.841,34.428000000000004
35.491,35.022,34.961,35.027,35.832,34.39
35.465,35.001999999999995,35.01,35.083,35.821999999999996,34.35
35.439,34.981,35.063,35.134,35.81,34.311
35.414,34.961,35.12,35.183,35.796,34.273
35.391,34.94,35.181999999999995,35.227,35.781,34.236999999999995
35.372,34.921,35.246,35.269,35.765,34.204
35.357,34.904,35.313,35.309,35.75,34.173
35.346,34.888000000000005,35.383,35.347,35.735,34.144
35.336999999999996,34.875,35.455999999999996,35.383,35.72,34.114000000000004
35.330999999999996,34.864000000000004,35.533,35.418,35.705,34.084
35.325,34.855,35.611,35.453,35.691,34.054
35.32,34.847,35.69,35.486,35.677,34.024
35.316,34.842,35.769,35.519,35.664,33.994
35.311,34.839,35.847,35.551,35.652,33.965
35.306,34.836999999999996,35.923,35.580999999999996,35.641,33.937
35.302,34.835,35.996,35.609,35.63,33.909
35.297,34.835,36.066,35.634,35.619,33.883
35.291,34.834,36.131,35.656,35.608000000000004,33.857
35.284,34.832,36.192,35.675,35.596,33.832
35.275,34.828,36.248000000000005,35.69,35.580999999999996,33.809
35.264,34.821999999999996,36.298,35.7,35.563,33.786
35.251999999999995,34.812,36.341,35.707,35.543,33.763000000000005
35.238,34.8,36.378,35.708,35.52,33.74
35.224000000000004,34.786,36.409,35.705,35.494,33.716
35.208,34.771,36.435,35.699,35.465,33.692
35.19,34.755,36.455999999999996,35.692,35.434,33.668
35.17,34.739000000000004,36.474000000000004,35.685,35.4,33.641999999999996
35.15,34.723,36.49,35.68,35.366,33.617
35.131,34.708,36.503,35.676,35.330999999999996,33.59
35.113,34.694,36.516,35.674,35.297,33.564
35.097,34.681999999999995,36.528,35.674,35.263000000000005,33.536
35.084,34.672,36.54,35.678000000000004,35.232,33.506
35.074,34.663000000000004,36.552,35.684,35.205,33.474000000000004
35.066,34.656,36.564,35.693000000000005,35.181,33.441
35.06,34.650999999999996,36.575,35.704,35.161,33.407
35.054,34.65,36.584,35.718,35.143,33.374
35.048,34.652,36.591,35.733000000000004,35.129,33.342
35.041,34.658,36.596,35.747,35.116,33.314
35.034,34.665,36.599000000000004,35.76,35.104,33.288000000000004
35.025999999999996,34.674,36.6,35.769,35.094,33.266
35.016,34.681999999999995,36.6,35.775,35.084,33.247
35.005,34.69,36.599000000000004,35.778,35.076,33.232
34.992,34.696999999999996,36.598,35.775999999999996,35.069,33.219
34.975,34.703,36.598,35.771,35.063,33.209
34.955999999999996,34.705999999999996,36.598,35.763000000000005,35.056999999999995,33.201
34.934,34.71,36.599000000000004,35.751999999999995,35.052,33.194
34.909,34.713,36.601,35.739000000000004,35.047,33.189
34.882,34.716,36.604,35.725,35.043,33.183
34.854,34.718,36.608000000000004,35.709,35.039,33.177
34.826,34.718,36.614000000000004,35.692,35.035,33.171
34.799,34.715,36.62,35.675,35.032,33.163000000000004
34.775,34.709,36.624,35.657,35.028,33.155
34.751,34.696999999999996,36.625,35.64,35.025,33.144
34.728,34.681999999999995,36.624,35.622,35.022,33.132
34.707,34.664,36.618,35.603,35.016999999999996,33.117
34.686,34.644,36.609,35.583,35.012,33.1
34.666,34.621,36.594,35.56,35.004,33.082
34.647,34.597,36.576,35.535,34.995,33.062
34.629,34.57,36.555,35.508,34.985,33.042
34.611999999999995,34.541,36.533,35.478,34.972,33.022
34.597,34.509,36.51,35.446,34.958,33.005
34.584,34.476,36.486999999999995,35.412,34.943000000000005,32.989000000000004
34.571999999999996,34.442,36.464,35.379,34.929,32.976
34.559,34.41,36.441,35.346,34.914,32.965
34.547,34.38,36.418,35.314,34.9,32.958
34.533,34.353,36.394,35.285,34.885,32.955
34.519,34.329,36.369,35.26,34.868,32.957
34.504,34.308,36.343,35.239000000000004,34.851,32.965
34.488,34.289,36.317,35.223,34.832,32.982
34.473,34.272,36.293,35.211999999999996,34.812,33.008
34.458,34.258,36.269,35.207,34.789,33.044000000000004
34.443000000000005,34.246,36.244,35.207,34.766,33.092
34.431,34.238,36.22,35.211999999999996,34.74,33.153
34.419000000000004,34.234,36.196,35.22,34.714,33.227
34.41,34.234,36.173,35.232,34.686,33.316
34.402,34.236999999999995,36.150999999999996,35.244,34.658,33.417
34.396,34.242,36.131,35.256,34.629,33.531
34.391,34.245,36.114000000000004,35.266,34.601,33.654
34.387,34.247,36.099000000000004,35.275,34.573,33.787
34.383,34.245,36.086,35.282,34.547,33.926
34.378,34.241,36.077,35.285,34.523,34.07
34.373000000000005,34.232,36.071,35.284,34.5,34.218
34.367,34.221,36.068000000000005,35.279,34.478,34.369
34.359,34.207,36.068000000000005,35.269,34.457,34.522
34.35,34.192,36.071,35.255,34.437,34.674
34.339,34.174,36.075,35.239000000000004,34.418,34.826
34.327,34.153,36.08,35.221,34.397,34.974000000000004
34.315,34.128,36.085,35.2,34.375,35.119
34.302,34.102,36.088,35.177,34.353,35.257
34.29,34.074,36.089,35.153,34.329,35.39
34.278,34.047,36.089,35.128,34.305,35.514
34.266,34.021,36.086,35.103,34.282,35.63
34.256,33.999,36.08,35.079,34.26,35.735
34.247,33.981,36.073,35.056,34.238,35.83
34.239000000000004,33.966,36.065,35.035,34.218,35.914
34.232,33.955,36.058,35.016999999999996,34.198,35.986999999999995
34.226,33.946,36.051,35.001999999999995,34.179,36.049
34.222,33.94,36.046,34.99,34.16,36.1
34.219,33.935,36.043,34.981,34.141999999999996,36.143
34.219,33.931,36.04,34.974000000000004,34.125,36.176
34.22,33.929,36.038000000000004,34.97,34.11,36.202
34.221,33.93,36.037,34.967,34.095,36.221
34.222,33.933,36.034,34.965,34.080999999999996,36.234
34.221,33.938,36.031,34.961999999999996,34.068000000000005,36.242
34.22,33.943000000000005,36.025,34.959,34.055,36.246
34.217,33.948,36.018,34.954,34.042,36.246
34.213,33.952,36.008,34.946,34.03,36.244
34.209,33.955,35.997,34.935,34.019,36.24
34.205,33.957,35.983000000000004,34.921,34.008,36.234
34.2,33.959,35.967,34.904,33.997,36.226
34.193000000000005,33.961999999999996,35.949,34.882,33.986,36.216
34.185,33.965,35.93,34.858000000000004,33.976,36.204
34.176,33.971,35.911,34.832,33.966,36.19
34.167,33.979,35.891,34.804,33.954,36.172
34.157,33.992,35.872,34.775,33.941,36.150999999999996
34.148,34.009,35.853,34.745,33.926,36.126999999999995
34.14,34.032,35.836,34.716,33.91,36.1
34.133,34.061,35.819,34.688,33.893,36.071
34.126999999999995,34.095,35.802,34.661,33.875,36.039
34.123000000000005,34.13,35.784,34.635999999999996,33.858000000000004,36.007
34.121,34.164,35.766,34.611999999999995,33.841,35.973
34.121,34.198,35.747,34.59,33.825,35.939
34.123000000000005,34.232,35.727,34.57,33.81,35.905
34.128,34.268,35.705999999999996,34.552,33.796,35.871
34.135999999999996,34.308,35.683,34.535,33.784,35.836
34.147,34.353,35.659,34.521,33.773,35.801
34.163000000000004,34.404,35.635999999999996,34.509,33.765,35.764
34.184,34.46,35.611999999999995,34.499,33.759,35.724000000000004
34.208,34.522,35.59,34.49,33.754,35.681
34.236,34.588,35.568000000000005,34.483000000000004,33.75,35.635
34.269,34.658,35.549,34.477,33.747,35.586
34.306999999999995,34.73,35.531,34.471,33.745,35.536
34.349000000000004,34.802,35.516,34.465,33.743,35.484
34.395,34.874,35.501999999999995,34.459,33.742,35.431999999999995
34.446,34.944,35.491,34.453,33.743,35.383
34.499,35.01,35.482,34.446,33.746,35.336
34.555,35.07,35.474000000000004,34.438,33.751999999999995,35.291
34.614000000000004,35.125,35.467,34.429,33.76,35.25
34.673,35.175,35.46,34.419000000000004,33.774,35.213
34.732,35.218,35.453,34.409,33.793,35.18
34.79,35.256,35.443000000000005,34.397,33.819,35.15
34.847,35.286,35.431999999999995,34.384,33.853,35.124
34.900999999999996,35.31,35.42,34.37,33.896,35.101
34.953,35.326,35.406,34.354,33.946999999999996,35.080999999999996
35.005,35.336,35.391,34.339,34.007,35.061
35.056999999999995,35.341,35.376999999999995,34.323,34.078,35.043
35.11,35.34,35.361999999999995,34.306,34.159,35.024
35.161,35.335,35.348,34.288000000000004,34.249,35.006
35.208,35.325,35.334,34.269,34.349000000000004,34.99
35.25,35.313,35.323,34.249,34.455,34.973
35.286,35.299,35.313,34.229,34.567,34.955
35.314,35.284,35.304,34.211,34.683,34.936
35.336,35.27,35.296,34.194,34.802,34.917
35.352,35.258,35.287,34.178000000000004,34.922,34.898
35.361999999999995,35.247,35.277,34.164,35.04,34.88
35.369,35.238,35.264,34.150999999999996,35.157,34.863
35.372,35.233000000000004,35.25,34.139,35.27,34.849000000000004
35.372,35.23,35.233000000000004,34.129,35.378,34.841
35.37,35.231,35.211999999999996,34.121,35.48,34.836999999999996
35.366,35.235,35.188,34.114000000000004,35.575,34.839
35.36,35.242,35.161,34.108000000000004,35.662,34.847
35.353,35.251999999999995,35.131,34.103,35.741,34.86
35.346,35.262,35.099000000000004,34.098,35.811,34.876
35.341,35.273,35.067,34.093,35.873000000000005,34.895
35.336999999999996,35.282,35.037,34.088,35.927,34.913000000000004
35.336,35.287,35.008,34.082,35.973,34.93
35.336,35.289,34.982,34.074,36.013000000000005,34.944
35.339,35.286,34.959,34.064,36.045,34.954
35.344,35.28,34.939,34.052,36.071999999999996,34.96
35.351,35.269,34.922,34.039,36.093,34.963
35.36,35.255,34.906,34.023,36.11,34.961999999999996
35.372,35.238,34.891,34.006,36.121,34.959
35.385999999999996,35.217,34.875,33.99,36.128,34.954
35.400999999999996,35.195,34.859,33.974000000000004,36.13,34.946999999999996
35.416,35.17,34.843,33.96,36.129,34.938
35.429,35.146,34.826,33.948,36.124,34.927
35.44,35.123000000000005,34.809,33.939,36.118,34.914
35.448,35.101,34.793,33.935,36.11,34.9
35.454,35.080999999999996,34.777,33.937,36.102,34.884
35.458,35.063,34.762,33.944,36.092,34.868
35.46,35.048,34.749,33.959,36.082,34.849000000000004
35.461,35.035,34.74,33.98,36.071999999999996,34.828
35.458,35.024,34.738,34.008,36.063,34.804
35.451,35.015,34.744,34.043,36.054,34.777
35.443000000000005,35.006,34.758,34.084,36.047,34.747
35.433,34.998000000000005,34.781,34.131,36.041,34.715
35.422,34.99,34.815,34.183,36.038000000000004,34.68
35.411,34.982,34.859,34.239000000000004,36.035,34.643
35.399,34.972,34.913000000000004,34.299,36.033,34.605
35.385999999999996,34.961,34.977,34.363,36.03,34.566
35.371,34.95,35.048,34.431,36.025999999999996,34.529
35.354,34.937,35.126999999999995,34.501999999999995,36.02,34.494
35.336999999999996,34.925,35.211,34.576,36.012,34.461999999999996
35.321,34.913000000000004,35.3,34.652,36.0,34.435
35.306,34.903,35.393,34.729,35.985,34.411
35.292,34.894,35.489000000000004,34.805,35.966,34.391
35.28,34.888000000000005,35.588,34.88,35.945,34.373000000000005
35.268,34.883,35.689,34.953,35.921,34.356
35.256,34.881,35.792,35.022,35.895,34.339
35.245,34.882,35.896,35.086,35.867,34.32
35.236,34.885999999999996,35.998000000000005,35.146,35.835,34.297
35.228,34.891999999999996,36.1,35.199,35.803000000000004,34.27
35.222,34.899,36.199,35.245,35.768,34.238
35.215,34.908,36.297,35.286,35.734,34.201
35.209,34.916,36.391,35.321999999999996,35.699,34.16
35.204,34.924,36.48,35.355,35.665,34.116
35.199,34.929,36.564,35.385,35.632,34.071
35.196,34.933,36.641,35.412,35.6,34.028
35.194,34.934,36.71,35.437,35.569,33.988
35.194,34.933,36.77,35.461999999999996,35.539,33.952
35.195,34.93,36.821,35.486999999999995,35.510999999999996,33.92
35.196999999999996,34.925,36.863,35.513000000000005,35.483000000000004,33.893
35.199,34.918,36.898,35.539,35.458,33.869
35.201,34.91,36.925,35.564,35.434,33.849000000000004
35.204,34.899,36.946,35.59,35.413000000000004,33.833
35.205999999999996,34.885999999999996,36.961,35.614000000000004,35.394,33.818000000000005
35.208,34.872,36.972,35.637,35.376999999999995,33.806
35.211,34.858000000000004,36.98,35.657,35.361999999999995,33.794000000000004
35.216,34.843,36.984,35.674,35.348,33.784
35.222,34.828,36.986999999999995,35.687,35.335,33.773
35.23,34.814,36.988,35.696999999999996,35.325,33.760999999999996
35.236,34.799,36.986999999999995,35.702,35.316,33.748000000000005
35.241,34.785,36.986,35.703,35.31,33.733000000000004
35.244,34.77,36.984,35.699,35.306999999999995,33.716
35.246,34.754,36.981,35.692,35.305,33.696
35.248000000000005,34.738,36.978,35.68,35.305,33.674
35.249,34.722,36.974000000000004,35.666,35.306,33.65
35.25,34.707,36.969,35.65,35.309,33.624
35.249,34.692,36.965,35.633,35.312,33.599000000000004
35.246,34.679,36.96,35.617,35.316,33.573
35.241,34.668,36.955999999999996,35.603,35.318000000000005,33.549
35.232,34.657,36.952,35.591,35.319,33.527
35.222,34.647,36.948,35.583,35.319,33.507
35.211999999999996,34.637,36.944,35.578,35.319,33.488
35.2,34.626999999999995,36.94,35.577,35.317,33.47
35.188,34.617,36.935,35.578,35.314,33.455
35.176,34.607,36.929,35.580999999999996,35.311,33.442
35.163000000000004,34.598,36.922,35.586,35.306,33.431
35.15,34.589,36.913000000000004,35.591,35.299,33.423
35.137,34.580999999999996,36.902,35.596,35.291,33.419000000000004
35.126,34.574,36.889,35.6,35.281,33.419000000000004
35.115,34.567,36.874,35.602,35.269,33.424
35.106,34.559,36.856,35.601,35.257,33.436
35.099000000000004,34.551,36.836,35.598,35.245,33.455
35.093,34.543,36.813,35.593,35.232,33.484
35.088,34.534,36.787,35.588,35.219,33.523
35.083,34.524,36.759,35.580999999999996,35.205,33.573
35.077,34.515,36.728,35.573,35.191,33.635
35.069,34.506,36.696,35.565,35.176,33.711
35.059,34.497,36.662,35.556,35.159,33.801
35.047,34.486999999999995,36.628,35.546,35.141,33.904
35.032,34.475,36.593,35.536,35.12,34.02
35.013000000000005,34.461,36.556,35.525999999999996,35.097,34.15
34.993,34.446,36.516999999999996,35.516,35.071,34.292
34.97,34.429,36.477,35.505,35.043,34.445
34.946,34.413000000000004,36.435,35.494,35.013000000000005,34.604
34.923,34.396,36.393,35.482,34.981,34.769
34.902,34.381,36.351,35.469,34.95,34.934
34.882,34.367,36.309,35.454,34.918,35.099000000000004
34.864000000000004,34.354,36.269,35.437,34.887,35.26
34.847,34.342,36.229,35.419000000000004,34.858000000000004,35.414
34.832,34.332,36.191,35.399,34.83,35.559
34.817,34.323,36.155,35.379,34.804,35.694
34.805,34.316,36.121,35.358000000000004,34.777,35.819
34.795,34.31,36.089,35.336999999999996,34.751,35.931999999999995
34.787,34.305,36.06,35.317,34.725,36.034
34.781,34.302,36.034,35.299,34.698,36.126999999999995
34.775999999999996,34.299,36.01,35.283,34.672,36.21
34.771,34.295,35.989000000000004,35.27,34.646,36.285
34.766,34.291,35.971,35.260999999999996,34.621,36.351
34.76,34.286,35.958,35.254,34.595,36.41
34.753,34.28,35.946999999999996,35.251999999999995,34.571,36.46
34.747,34.272,35.94,35.251999999999995,34.548,36.503
34.742,34.264,35.933,35.255,34.525999999999996,36.54
34.736999999999995,34.256,35.926,35.26,34.505,36.57
34.733000000000004,34.251,35.919000000000004,35.268,34.485,36.594
34.73,34.248000000000005,35.911,35.279,34.466,36.611
34.727,34.249,35.904,35.293,34.449,36.622
34.724000000000004,34.251999999999995,35.897,35.306999999999995,34.433,36.628
34.721,34.258,35.891,35.321,34.418,36.628
34.719,34.265,35.885999999999996,35.332,34.405,36.623000000000005
34.717,34.274,35.882,35.34,34.394,36.613
34.715,34.286,35.88,35.343,34.382,36.598
34.711999999999996,34.302,35.879,35.342,34.371,36.579
34.708,34.321999999999996,35.88,35.336,34.36,36.556
34.702,34.347,35.882,35.326,34.347,36.53
34.693000000000005,34.376999999999995,35.884,35.313,34.333,36.501
34.681999999999995,34.412,35.887,35.296,34.318000000000005,36.47
34.67,34.45,35.889,35.275999999999996,34.303000000000004,36.439
34.658,34.49,35.889,35.253,34.286,36.407
34.646,34.533,35.888000000000005,35.228,34.269,36.375
34.634,34.578,35.885999999999996,35.201,34.251,36.343
34.624,34.626,35.881,35.173,34.233000000000004,36.311
34.615,34.677,35.875,35.145,34.217,36.278
34.608000000000004,34.732,35.866,35.117,34.201,36.245
34.6,34.791,35.855,35.089,34.187,36.211
34.593,34.855,35.84,35.062,34.174,36.174
34.584,34.922,35.824,35.035,34.161,36.135
34.575,34.99,35.805,35.01,34.150999999999996,36.093
34.564,35.058,35.783,34.986,34.141,36.048
34.554,35.125,35.759,34.964,34.132,36.001999999999995
34.544000000000004,35.189,35.733000000000004,34.944,34.123000000000005,35.955
34.535,35.251,35.703,34.927,34.113,35.908
34.527,35.31,35.672,34.911,34.103,35.861
34.52,35.364000000000004,35.637,34.897,34.092,35.816
34.513000000000005,35.413000000000004,35.6,34.885999999999996,34.08,35.772
34.505,35.459,35.561,34.876,34.068000000000005,35.729
34.496,35.499,35.522,34.867,34.055,35.687
34.486,35.534,35.481,34.86,34.043,35.645
34.476,35.564,35.44,34.853,34.031,35.605
34.464,35.589,35.4,34.847,34.02,35.564
34.452,35.608000000000004,35.361,34.842,34.009,35.523
34.44,35.623000000000005,35.324,34.838,33.998000000000005,35.483000000000004
34.428000000000004,35.632,35.289,34.834,33.986999999999995,35.443000000000005
34.416,35.639,35.258,34.83,33.977,35.404
34.405,35.643,35.23,34.826,33.968,35.368
34.394,35.644,35.205999999999996,34.819,33.959,35.333
34.383,35.643,35.186,34.809,33.951,35.302
34.372,35.641,35.169000000000004,34.796,33.943000000000005,35.273
34.361999999999995,35.639,35.154,34.78,33.939,35.248000000000005
34.354,35.635999999999996,35.14,34.76,33.937,35.226
34.351,35.635,35.128,34.736999999999995,33.939,35.208
34.351,35.635,35.115,34.711999999999996,33.944,35.193000000000005
34.356,35.635,35.103,34.685,33.954,35.181999999999995
34.366,35.637,35.092,34.657,33.97,35.175
34.379,35.64,35.08,34.629,33.991,35.17
34.396,35.643,35.066,34.602,34.021,35.168
34.414,35.648,35.052,34.575,34.058,35.168
34.433,35.652,35.035,34.548,34.106,35.17
34.454,35.657,35.016999999999996,34.523,34.164,35.173
34.476,35.661,34.999,34.499,34.231,35.177
34.501,35.664,34.981,34.478,34.306999999999995,35.181
34.528,35.666,34.961999999999996,34.46,34.391,35.183
34.559,35.667,34.943000000000005,34.445,34.483000000000004,35.183
34.594,35.666,34.925,34.431999999999995,34.582,35.181
34.633,35.662,34.907,34.422,34.687,35.178000000000004
34.677,35.656,34.891,34.414,34.797,35.174
34.726,35.647,34.876999999999995,34.409,34.909,35.171
34.778,35.635999999999996,34.866,34.406,35.024,35.168
34.834,35.625,34.857,34.405,35.138000000000005,35.166
34.891999999999996,35.613,34.85,34.405,35.251999999999995,35.165
34.951,35.601,34.844,34.404,35.361999999999995,35.165
35.010999999999996,35.589,34.839,34.403,35.467,35.165
35.068000000000005,35.577,34.835,34.399,35.567,35.165
35.123000000000005,35.565,34.83,34.394,35.66,35.165
35.174,35.553000000000004,34.825,34.387,35.745,35.162
35.222,35.541,34.82,34.376999999999995,35.823,35.158
35.266,35.529,34.814,34.364000000000004,35.893,35.15
35.306999999999995,35.516999999999996,34.806999999999995,34.348,35.955,35.139
35.345,35.504,34.798,34.329,36.01,35.124
35.379,35.49,34.786,34.306999999999995,36.058,35.105
35.41,35.475,34.772,34.282,36.1,35.082
35.435,35.457,34.757,34.257,36.135,35.056999999999995
35.455,35.438,34.738,34.232,36.165,35.03
35.468,35.418,34.718,34.208,36.191,35.001
35.476,35.399,34.696,34.187,36.211999999999996,34.972
35.48,35.38,34.672,34.169000000000004,36.23,34.944
35.481,35.364000000000004,34.647,34.155,36.245,34.916
35.479,35.349000000000004,34.622,34.146,36.257,34.889
35.476,35.336,34.597,34.141999999999996,36.266,34.863
35.471,35.324,34.571999999999996,34.141,36.272,34.836999999999996
35.466,35.314,34.548,34.143,36.275,34.81
35.46,35.306,34.527,34.148,36.275,34.782
35.454,35.301,34.508,34.156,36.272,34.751999999999995
35.45,35.298,34.491,34.166,36.266,34.719
35.446999999999996,35.297,34.476,34.178000000000004,36.258,34.683
35.445,35.299,34.463,34.189,36.249,34.644
35.445,35.301,34.452,34.2,36.239000000000004,34.601
35.446,35.305,34.444,34.208,36.228,34.554
35.449,35.306999999999995,34.44,34.215,36.218,34.504
35.454,35.308,34.441,34.22,36.207,34.452
35.46,35.306,34.446999999999996,34.223,36.196,34.399
35.468,35.302,34.461,34.226,36.184,34.348
35.478,35.297,34.482,34.229,36.173,34.3
35.489000000000004,35.29,34.512,34.235,36.161,34.258
35.501999999999995,35.284,34.552,34.244,36.149,34.222
35.516,35.278,34.603,34.259,36.135,34.194
35.53,35.272,34.667,34.279,36.12,34.173
35.545,35.266999999999996,34.743,34.306,36.103,34.159
35.559,35.260999999999996,34.83,34.341,36.083,34.15
35.571,35.256,34.928000000000004,34.383,36.06,34.144
35.580999999999996,35.251,35.033,34.433,36.033,34.14
35.589,35.245,35.145,34.489000000000004,36.001999999999995,34.135999999999996
35.595,35.24,35.260999999999996,34.551,35.967,34.13
35.597,35.236,35.379,34.619,35.928000000000004,34.121
35.597,35.233000000000004,35.499,34.69,35.887,34.109
35.594,35.231,35.617,34.766,35.845,34.093
35.588,35.23,35.734,34.844,35.802,34.074
35.580999999999996,35.229,35.848,34.923,35.759,34.053000000000004
35.571,35.226,35.959,35.001999999999995,35.718,34.029
35.558,35.222,36.067,35.080999999999996,35.678000000000004,34.005
35.543,35.216,36.172,35.157,35.641,33.979
35.524,35.207,36.275999999999996,35.231,35.604,33.953
35.501,35.196,36.376999999999995,35.3,35.567,33.926
35.478,35.183,36.475,35.363,35.529,33.9
35.454,35.168,36.569,35.42,35.491,33.873000000000005
35.431999999999995,35.150999999999996,36.659,35.471,35.454,33.847
35.412,35.134,36.745,35.516999999999996,35.418,33.823
35.395,35.116,36.827,35.556999999999995,35.385,33.8
35.379,35.099000000000004,36.904,35.591,35.353,33.778
35.364000000000004,35.082,36.975,35.619,35.324,33.759
35.35,35.065,37.039,35.641999999999996,35.298,33.741
35.338,35.047,37.097,35.659,35.275999999999996,33.725
35.328,35.029,37.148,35.671,35.259,33.711
35.321,35.009,37.192,35.678000000000004,35.247,33.698
35.316,34.988,37.23,35.681,35.24,33.684
35.313,34.966,37.263000000000005,35.681999999999995,35.239000000000004,33.67
35.312,34.943000000000005,37.291,35.681,35.242,33.655
35.311,34.92,37.315,35.679,35.25,33.64
35.31,34.897,37.335,35.677,35.260999999999996,33.624
35.31,34.876,37.352,35.675,35.275,33.607
35.309,34.855,37.366,35.674,35.291,33.592
35.309,34.836,37.378,35.674,35.306,33.578
35.309,34.817,37.388000000000005,35.677,35.319,33.565
35.308,34.8,37.396,35.683,35.330999999999996,33.554
35.305,34.784,37.402,35.692,35.339,33.544000000000004
35.301,34.771,37.405,35.702,35.345,33.535
35.297,34.760999999999996,37.407,35.714,35.346,33.527
35.292,34.753,37.408,35.726,35.343,33.518
35.287,34.747,37.407,35.738,35.336999999999996,33.509
35.283,34.742,37.405,35.747,35.328,33.5
35.278,34.736999999999995,37.402,35.753,35.318000000000005,33.492
35.272,34.733000000000004,37.398,35.756,35.306999999999995,33.485
35.264,34.729,37.391999999999996,35.755,35.295,33.48
35.251999999999995,34.725,37.385,35.751999999999995,35.284,33.478
35.239000000000004,34.721,37.375,35.746,35.273,33.481
35.225,34.716,37.361999999999995,35.738,35.263000000000005,33.491
35.211,34.71,37.345,35.728,35.253,33.508
35.199,34.703,37.326,35.716,35.241,33.535
35.188,34.695,37.302,35.704,35.229,33.571
35.179,34.686,37.275,35.69,35.215,33.619
35.172,34.674,37.244,35.677,35.199,33.678000000000004
35.165,34.661,37.21,35.662,35.181,33.75
35.159,34.648,37.175,35.648,35.161,33.836
35.154,34.635,37.14,35.633,35.139,33.938
35.149,34.622,37.105,35.618,35.116,34.055
35.145,34.61,37.071,35.602,35.092,34.187
35.141,34.598,37.04,35.585,35.065,34.332
35.139,34.585,37.012,35.566,35.038000000000004,34.491
35.135999999999996,34.574,36.988,35.545,35.01,34.66
35.134,34.562,36.968,35.522,34.982,34.836
35.131,34.551,36.951,35.497,34.955,35.018
35.128,34.541,36.938,35.47,34.929,35.202
35.125,34.532,36.928000000000004,35.441,34.904,35.385999999999996
35.122,34.524,36.92,35.412,34.88,35.568000000000005
35.116,34.518,36.915,35.382,34.857,35.745
35.11,34.512,36.911,35.355,34.836,35.916
35.101,34.508,36.908,35.329,34.815,36.08
35.09,34.504,36.904,35.306999999999995,34.793,36.236
35.078,34.5,36.900999999999996,35.288000000000004,34.771,36.382
35.064,34.497,36.899,35.275,34.748000000000005,36.518
35.049,34.495,36.897,35.266,34.724000000000004,36.641999999999996
35.033,34.494,36.897,35.263000000000005,34.699,36.755
35.016,34.494,36.9,35.265,34.673,36.856
34.998000000000005,34.495,36.904,35.27,34.647,36.946
34.979,34.497,36.91,35.277,34.622,37.024
34.96,34.499,36.916,35.283,34.597,37.091
34.942,34.501999999999995,36.924,35.29,34.571,37.149
34.927,34.505,36.931,35.296,34.546,37.198
34.914,34.508,36.938,35.301,34.521,37.239000000000004
34.904,34.510999999999996,36.944,35.304,34.496,37.273
34.894,34.516,36.95,35.306,34.472,37.301
34.885,34.522,36.954,35.308,34.45,37.323
34.874,34.53,36.957,35.31,34.429,37.339
34.864000000000004,34.541,36.96,35.312,34.41,37.35
34.853,34.556,36.961,35.315,34.391,37.354
34.843,34.575,36.961999999999996,35.317,34.374,37.354
34.835,34.598,36.961999999999996,35.32,34.358000000000004,37.348
34.829,34.625,36.961999999999996,35.321999999999996,34.342,37.338
34.825,34.655,36.961,35.321999999999996,34.328,37.325
34.823,34.691,36.958,35.321,34.315,37.309
34.821999999999996,34.733000000000004,36.955,35.317,34.302,37.29
34.821,34.783,36.951,35.312,34.29,37.268
34.817,34.839,36.945,35.304,34.279,37.246
34.81,34.902,36.939,35.293,34.268,37.222
34.801,34.969,36.931999999999995,35.28,34.257,37.196999999999996
34.79,35.039,36.924,35.265,34.245,37.169000000000004
34.778,35.111999999999995,36.912,35.25,34.232,37.14
34.766,35.185,36.899,35.235,34.218,37.107
34.754,35.257,36.883,35.22,34.202,37.071
34.743,35.328,36.865,35.205,34.186,37.032
34.733000000000004,35.397,36.844,35.19,34.169000000000004,36.991
34.723,35.463,36.82,35.176,34.153,36.946999999999996
34.713,35.525999999999996,36.794000000000004,35.161,34.137,36.9
34.704,35.585,36.766,35.145,34.122,36.851
34.695,35.637,36.739000000000004,35.13,34.107,36.8
34.685,35.683,36.711999999999996,35.115,34.093,36.747
34.675,35.722,36.688,35.099000000000004,34.079,36.693000000000005
34.664,35.753,36.666,35.083,34.066,36.637
34.655,35.779,36.646,35.067,34.054,36.58
34.646,35.8,36.626999999999995,35.052,34.043,36.523
34.64,35.819,36.609,35.037,34.033,36.465
34.634,35.835,36.59,35.022,34.025,36.408
34.628,35.85,36.571,35.009,34.016999999999996,36.353
34.622,35.864000000000004,36.549,34.996,34.01,36.3
34.616,35.876999999999995,36.525999999999996,34.983000000000004,34.003,36.251
34.609,35.889,36.498000000000005,34.97,33.997,36.205999999999996
34.602,35.902,36.469,34.955999999999996,33.99,36.166
34.596,35.913000000000004,36.437,34.941,33.985,36.13
34.59,35.924,36.404,34.924,33.98,36.098
34.586,35.933,36.37,34.904,33.976,36.07
34.584,35.942,36.338,34.882,33.974000000000004,36.046
34.582,35.951,36.306,34.858000000000004,33.973,36.025999999999996
34.58,35.958,36.273,34.832,33.975,36.008
34.579,35.963,36.241,34.805,33.979,35.993
34.576,35.966,36.209,34.777,33.986999999999995,35.98
34.571999999999996,35.967,36.18,34.748000000000005,33.997,35.968
34.567,35.966,36.153,34.721,34.010999999999996,35.958
34.562,35.964,36.129,34.696,34.032,35.951
34.556,35.961,36.11,34.673,34.06,35.945
34.55,35.959,36.093,34.654,34.098,35.94
34.543,35.959,36.079,34.639,34.144,35.936
34.535,35.961,36.067,34.628,34.2,35.933
34.524,35.967,36.056,34.622,34.265,35.929
34.512,35.977,36.046,34.62,34.339,35.924
34.498000000000005,35.99,36.037,34.621,34.422,35.918
34.485,36.006,36.029,34.623000000000005,34.512,35.91
34.471,36.021,36.021,34.626999999999995,34.61,35.9
34.455999999999996,36.034,36.012,34.631,34.715,35.889
34.44,36.045,36.004,34.634,34.824,35.876
34.422,36.052,35.995,34.635,34.937,35.863
34.403,36.055,35.986999999999995,34.634,35.052,35.849000000000004
34.382,36.055,35.979,34.63,35.166,35.836
34.361,36.051,35.97,34.623000000000005,35.278,35.823
34.343,36.042,35.961,34.613,35.388000000000005,35.81
34.326,36.03,35.951,34.601,35.494,35.797
34.312,36.014,35.938,34.586,35.595,35.784
34.302,35.993,35.925,34.569,35.691,35.769
34.295,35.967,35.909,34.55,35.781,35.753
34.291,35.937,35.89,34.531,35.866,35.736
34.291,35.904,35.869,34.510999999999996,35.944,35.717
34.294000000000004,35.87,35.845,34.492,36.016999999999996,35.698
34.302,35.836999999999996,35.82,34.474000000000004,36.084,35.677
34.314,35.806999999999995,35.792,34.458,36.144,35.655
34.330999999999996,35.781,35.764,34.444,36.196999999999996,35.632
34.353,35.757,35.736,34.431,36.244,35.609
34.379,35.736,35.709,34.419000000000004,36.285,35.586
34.408,35.716,35.684,34.409,36.319,35.562
34.439,35.698,35.663000000000004,34.4,36.349000000000004,35.537
34.473,35.681,35.645,34.391999999999996,36.375,35.510999999999996
34.508,35.666,35.633,34.383,36.396,35.482
34.543,35.653,35.626999999999995,34.373000000000005,36.413000000000004,35.452
34.579,35.641999999999996,35.626999999999995,34.363,36.425,35.419000000000004
34.614000000000004,35.634,35.635,34.353,36.431,35.384
34.65,35.626999999999995,35.65,34.345,36.433,35.348
34.688,35.618,35.674,34.336999999999996,36.431999999999995,35.311
34.728,35.605,35.707,34.33,36.426,35.272
34.771,35.585,35.749,34.321999999999996,36.419000000000004,35.232
34.817,35.561,35.8,34.313,36.409,35.192
34.866,35.532,35.86,34.303000000000004,36.399,35.152
34.919000000000004,35.503,35.929,34.292,36.387,35.113
34.976,35.476,36.005,34.281,36.374,35.076
35.034,35.455,36.089,34.269,36.361,35.04
35.093,35.44,36.179,34.258,36.347,35.006
35.153,35.434,36.277,34.248000000000005,36.332,34.973
35.211999999999996,35.436,36.38,34.238,36.317,34.943000000000005
35.27,35.445,36.486999999999995,34.228,36.301,34.915
35.326,35.459,36.597,34.218,36.285,34.891
35.378,35.478,36.71,34.208,36.266999999999996,34.869
35.426,35.499,36.825,34.198,36.248000000000005,34.851
35.471,35.52,36.939,34.185,36.228,34.836
35.510999999999996,35.54,37.052,34.171,36.207,34.821
35.546,35.559,37.162,34.156,36.184,34.806
35.577,35.574,37.268,34.141,36.161,34.789
35.602,35.584,37.37,34.125,36.135999999999996,34.77
35.621,35.59,37.467,34.109,36.11,34.747
35.634,35.592,37.558,34.095,36.082,34.722
35.64,35.589,37.644,34.083,36.054,34.694
35.641,35.582,37.725,34.073,36.024,34.664
35.637,35.573,37.801,34.067,35.994,34.632
35.629,35.562,37.87,34.066,35.964,34.599000000000004
35.619,35.55,37.931999999999995,34.071999999999996,35.935,34.567
35.608000000000004,35.537,37.986999999999995,34.083,35.906,34.535
35.597,35.524,38.033,34.1,35.876,34.504
35.588,35.510999999999996,38.071999999999996,34.123000000000005,35.848,34.474000000000004
35.580999999999996,35.497,38.102,34.152,35.82,34.445
35.577,35.483000000000004,38.125,34.187,35.794000000000004,34.416
35.575,35.469,38.138000000000005,34.229,35.77,34.389
35.575,35.454,38.145,34.279,35.748000000000005,34.361999999999995
35.577,35.439,38.144,34.336999999999996,35.729,34.336
35.580999999999996,35.424,38.138000000000005,34.400999999999996,35.713,34.311
35.585,35.41,38.126999999999995,34.472,35.699,34.288000000000004
35.591,35.394,38.111,34.548,35.688,34.266999999999996
35.599000000000004,35.376999999999995,38.094,34.629,35.68,34.247
35.608000000000004,35.359,38.075,34.714,35.675,34.23
35.617,35.34,38.056,34.802,35.673,34.216
35.626,35.321,38.036,34.891999999999996,35.674,34.204
35.635,35.303000000000004,38.015,34.982,35.676,34.194
35.641999999999996,35.286,37.995,35.071,35.68,34.185
35.648,35.271,37.973,35.158,35.684,34.177
35.653,35.258,37.952,35.239000000000004,35.688,34.169000000000004
35.658,35.247,37.93,35.315,35.692,34.16
35.662,35.236999999999995,37.906,35.384,35.696,34.150999999999996
35.666,35.229,37.881,35.446999999999996,35.699,34.141999999999996
35.668,35.221,37.855,35.504,35.701,34.132
35.669000000000004,35.213,37.828,35.555,35.703,34.122
35.666,35.204,37.799,35.602,35.704,34.111
35.662,35.193000000000005,37.77,35.646,35.704,34.097
35.656,35.18,37.739000000000004,35.689,35.702,34.076
35.65,35.167,37.707,35.73,35.699,34.044000000000004
35.641999999999996,35.150999999999996,37.673,35.769,35.695,34.001
35.634,35.134,37.639,35.806999999999995,35.689,33.948
35.626,35.116,37.602,35.844,35.681,33.89
35.617,35.098,37.563,35.88,35.671,33.830999999999996
35.606,35.08,37.521,35.916,35.66,33.774
35.595,35.062,37.476,35.951,35.647,33.722
35.583,35.046,37.428000000000004,35.985,35.634,33.677
35.573,35.03,37.376999999999995,36.016999999999996,35.619,33.641999999999996
35.563,35.015,37.324,36.047,35.603,33.617
35.556,35.001,37.27,36.075,35.586999999999996,33.604
35.549,34.988,37.216,36.1,35.569,33.602
35.542,34.975,37.16,36.122,35.551,33.611999999999995
35.535,34.961999999999996,37.105,36.14,35.532,33.633
35.528,34.95,37.049,36.154,35.512,33.665
35.522,34.937,36.994,36.165,35.492,33.708
35.516,34.923,36.938,36.171,35.474000000000004,33.763000000000005
35.510999999999996,34.908,36.883,36.174,35.457,33.829
35.507,34.893,36.827,36.173,35.44,33.907
35.504,34.876999999999995,36.77,36.171,35.424,33.998000000000005
35.503,34.861999999999995,36.713,36.169000000000004,35.407,34.102
35.503,34.847,36.657,36.166,35.389,34.218
35.503,34.834,36.601,36.164,35.372,34.345
35.505,34.823,36.546,36.161,35.353,34.481
35.51,34.815,36.494,36.159,35.334,34.624
35.516999999999996,34.809,36.444,36.158,35.314,34.773
35.527,34.805,36.397,36.158,35.294000000000004,34.927
35.538000000000004,34.802,36.353,36.161,35.273,35.083
35.548,34.799,36.313,36.164,35.25,35.241
35.558,34.797,36.277,36.168,35.226,35.399
35.564,34.796,36.244,36.172,35.202,35.558
35.568000000000005,34.796,36.216,36.174,35.177,35.716
35.57,34.795,36.192,36.172,35.150999999999996,35.875
35.573,34.795,36.169000000000004,36.166,35.126,36.033
35.578,34.795,36.148,36.156,35.102,36.191
35.585,34.793,36.126999999999995,36.141999999999996,35.079,36.348
35.592,34.79,36.108000000000004,36.125,35.058,36.501999999999995
35.599000000000004,34.784,36.09,36.105,35.037,36.650999999999996
35.603,34.775999999999996,36.073,36.083,35.016999999999996,36.794000000000004
35.604,34.765,36.056,36.054,34.997,36.929
35.603,34.753,36.04,36.019,34.977,37.055
35.598,34.74,36.023,35.978,34.955,37.17
35.59,34.728,36.007,35.931999999999995,34.931999999999995,37.274
35.578,34.716,35.991,35.885999999999996,34.908,37.366
35.563,34.705,35.976,35.841,34.881,37.446999999999996
35.545,34.694,35.961,35.803000000000004,34.854,37.516999999999996
35.527,34.684,35.948,35.771,34.826,37.577
35.510999999999996,34.674,35.936,35.747,34.797,37.629
35.498000000000005,34.665,35.925,35.731,34.769,37.673
35.488,34.656,35.916,35.721,34.741,37.709
35.481,34.647,35.909,35.717,34.713,37.736999999999995
35.476,34.639,35.905,35.718,34.688,37.758
35.473,34.631,35.902,35.724000000000004,34.664,37.771
35.469,34.623000000000005,35.900999999999996,35.733000000000004,34.641,37.778
35.467,34.616,35.9,35.746,34.62,37.779
35.466,34.608000000000004,35.898,35.762,34.602,37.773
35.467,34.6,35.894,35.778,34.584,37.763000000000005
35.467,34.591,35.889,35.795,34.567,37.75
35.467,34.583,35.882,35.811,34.55,37.733000000000004
35.464,34.575,35.873000000000005,35.826,34.532,37.715
35.459,34.569,35.863,35.839,34.512,37.694
35.451,34.568000000000005,35.851,35.85,34.492,37.671
35.442,34.571,35.836999999999996,35.859,34.47,37.645
35.431999999999995,34.580999999999996,35.821,35.865,34.446,37.616
35.421,34.6,35.804,35.868,34.422,37.584
35.409,34.626999999999995,35.785,35.867,34.398,37.549
35.398,34.664,35.764,35.863,34.374,37.510999999999996
35.385999999999996,34.709,35.741,35.857,34.352,37.469
35.372,34.764,35.715,35.847,34.33,37.424
35.358000000000004,34.827,35.686,35.836,34.31,37.375
35.342,34.897,35.653,35.821,34.291,37.324
35.328,34.975,35.617,35.804,34.275,37.269
35.315,35.059,35.577,35.785,34.259,37.211999999999996
35.303000000000004,35.147,35.534,35.764,34.247,37.153
35.291,35.239000000000004,35.488,35.742,34.236,37.091
35.279,35.33,35.438,35.718,34.229,37.028
35.264,35.421,35.385999999999996,35.694,34.224000000000004,36.965
35.245,35.508,35.332,35.671,34.223,36.902
35.223,35.591,35.277,35.648,34.224000000000004,36.839
35.199,35.669000000000004,35.222,35.626,34.229,36.778
35.174,35.74,35.166,35.606,34.239000000000004,36.72
35.15,35.806,35.111,35.586,34.257,36.663000000000004
35.128,35.866,35.058,35.568000000000005,34.284,36.609
35.108000000000004,35.921,35.006,35.551,34.319,36.556
35.089,35.97,34.957,35.536,34.365,36.506
35.071,36.014,34.909,35.523,34.42,36.458
35.053000000000004,36.051,34.863,35.512,34.485,36.412
35.036,36.082,34.818000000000005,35.501,34.56,36.368
35.019,36.107,34.773,35.49,34.643,36.326
35.003,36.125,34.729,35.48,34.735,36.287
34.99,36.137,34.684,35.469,34.833,36.25
34.979,36.143,34.639,35.458,34.937,36.218
34.97,36.144,34.594,35.448,35.045,36.189
34.964,36.141,34.55,35.437,35.157,36.164
34.959,36.135999999999996,34.507,35.428000000000004,35.27,36.143
34.955999999999996,36.129,34.468,35.418,35.383,36.126999999999995
34.953,36.122,34.43,35.408,35.496,36.115
34.95,36.114000000000004,34.393,35.397,35.607,36.107
34.946,36.107,34.358000000000004,35.384,35.715,36.101
34.941,36.1,34.324,35.37,35.82,36.099000000000004
34.934,36.096,34.289,35.356,35.921,36.098
34.925,36.094,34.254,35.34,36.018,36.099000000000004
34.915,36.096,34.219,35.323,36.111999999999995,36.101
34.903,36.101,34.184,35.305,36.201,36.102
34.891999999999996,36.109,34.150999999999996,35.284,36.286,36.103
34.88,36.121,34.121,35.262,36.364000000000004,36.103
34.867,36.134,34.093,35.239000000000004,36.435,36.103
34.854,36.149,34.07,35.213,36.499,36.103
34.839,36.164,34.05,35.186,36.555,36.101
34.823,36.179,34.036,35.159,36.601,36.099000000000004
34.806999999999995,36.193000000000005,34.028,35.132,36.639,36.095
34.791,36.204,34.027,35.105,36.668,36.09
34.777,36.214,34.033,35.078,36.688,36.083
34.764,36.222,34.046,35.053000000000004,36.699,36.073
34.754,36.227,34.068000000000005,35.029,36.7,36.062
34.746,36.23,34.099000000000004,35.008,36.692,36.047
34.739000000000004,36.23,34.138000000000005,34.989000000000004,36.677,36.029
34.731,36.227,34.186,34.972,36.656,36.008
34.724000000000004,36.22,34.244,34.959,36.631,35.984
34.717,36.209,34.311,34.949,36.603,35.957
34.711,36.195,34.387,34.942,36.574,35.929
34.705999999999996,36.178000000000004,34.473,34.937,36.545,35.898
34.701,36.16,34.57,34.935,36.518,35.865
34.696999999999996,36.141,34.676,34.934,36.493,35.83
34.691,36.12,34.792,34.933,36.47,35.794000000000004
34.683,36.098,34.918,34.933,36.45,35.757
34.673,36.076,35.052,34.931999999999995,36.433,35.72
34.661,36.054,35.196,34.93,36.418,35.683
34.648,36.031,35.347,34.927,36.404,35.647
34.635999999999996,36.007,35.505,34.922,36.391,35.611999999999995
34.626,35.982,35.667,34.915,36.376,35.577
34.619,35.955,35.832,34.905,36.36,35.543
34.615,35.928000000000004,35.997,34.891,36.344,35.509
34.615,35.902,36.159,34.874,36.326,35.475
34.62,35.876,36.317,34.852,36.306,35.441
34.63,35.851,36.469,34.826,36.283,35.406
34.645,35.829,36.613,34.797,36.256,35.37
34.665,35.808,36.75,34.764,36.226,35.332
34.69,35.791,36.876,34.729,36.194,35.293
34.719,35.775,36.992,34.693000000000005,36.159,35.254
34.751,35.763000000000005,37.097,34.657,36.123000000000005,35.216
34.787,35.754,37.19,34.622,36.086,35.18
34.826,35.748000000000005,37.273,34.59,36.049,35.147
34.867,35.746,37.347,34.56,36.012,35.118
34.91,35.748000000000005,37.412,34.533,35.975,35.091
34.954,35.754,37.469,34.510999999999996,35.938,35.066
34.999,35.764,37.519,34.494,35.903,35.043
35.044000000000004,35.775999999999996,37.564,34.482,35.87,35.021
35.089,35.789,37.603,34.476,35.839,34.998000000000005
35.133,35.8,37.639,34.474000000000004,35.811,34.975
35.177,35.809,37.672,34.478,35.785,34.95
35.219,35.815,37.704,34.485,35.762,34.922
35.259,35.817,37.735,34.493,35.742,34.891999999999996
35.298,35.817,37.765,34.503,35.723,34.86
35.335,35.815,37.793,34.510999999999996,35.705,34.826
35.37,35.81,37.819,34.516999999999996,35.688,34.792
35.400999999999996,35.805,37.842,34.518,35.672,34.758
35.427,35.799,37.863,34.516,35.656,34.725
35.446,35.791,37.882,34.509,35.641,34.693000000000005
35.46,35.781,37.898,34.498000000000005,35.626999999999995,34.661
35.469,35.769,37.911,34.483000000000004,35.615,34.63
35.476,35.756,37.92,34.465,35.606,34.599000000000004
35.481,35.743,37.926,34.443000000000005,35.6,34.568000000000005
35.485,35.732,37.928000000000004,34.42,35.597,34.537
35.489000000000004,35.721,37.926,34.397,35.595,34.504
35.492,35.713,37.921,34.373000000000005,35.594,34.47
35.494,35.705,37.913000000000004,34.351,35.594,34.435
35.496,35.696999999999996,37.900999999999996,34.330999999999996,35.594,34.398
35.499,35.688,37.885,34.313,35.596,34.361
35.501999999999995,35.676,37.866,34.298,35.597,34.323
35.505,35.664,37.842,34.286,35.598,34.285
35.506,35.654,37.815,34.275999999999996,35.599000000000004,34.248000000000005
35.505,35.646,37.785,34.27,35.598,34.211
35.501999999999995,35.64,37.751999999999995,34.268,35.596,34.176
35.497,35.635,37.716,34.27,35.589,34.141999999999996
35.49,35.628,37.675,34.275999999999996,35.580999999999996,34.111
35.484,35.619,37.631,34.288000000000004,35.571,34.084
35.479,35.605,37.583,34.305,35.56,34.061
35.474000000000004,35.586,37.533,34.329,35.55,34.043
35.469,35.562,37.48,34.36,35.542,34.027
35.464,35.536,37.425,34.398,35.535,34.015
35.458,35.507,37.368,34.442,35.53,34.004
35.451,35.479,37.311,34.494,35.527,33.995
35.444,35.453,37.254,34.551,35.524,33.986
35.437,35.428000000000004,37.198,34.614000000000004,35.522,33.977
35.43,35.407,37.144,34.683,35.518,33.968
35.425,35.388000000000005,37.092,34.756,35.513000000000005,33.957
35.42,35.372,37.042,34.833,35.506,33.945
35.416,35.357,36.993,34.913000000000004,35.494,33.933
35.413000000000004,35.344,36.946,34.995,35.479,33.92
35.409,35.332,36.900999999999996,35.079,35.461,33.909
35.405,35.321,36.857,35.162,35.439,33.899
35.4,35.311,36.816,35.246,35.415,33.891999999999996
35.396,35.302,36.778,35.329,35.387,33.889
35.391,35.294000000000004,36.742,35.411,35.356,33.89
35.388000000000005,35.286,36.71,35.491,35.324,33.897
35.385,35.278,36.681,35.567,35.29,33.91
35.381,35.27,36.655,35.639,35.258,33.93
35.374,35.260999999999996,36.63,35.705999999999996,35.228,33.958
35.364000000000004,35.251,36.607,35.768,35.2,33.995
35.353,35.24,36.584,35.824,35.176,34.044000000000004
35.339,35.228,36.561,35.876,35.155,34.104
35.325,35.215,36.539,35.922,35.135999999999996,34.178000000000004
35.311,35.202,36.515,35.964,35.119,34.266
35.297,35.187,36.49,36.001,35.102,34.369
35.284,35.172,36.464,36.035,35.086,34.486
35.271,35.156,36.438,36.066,35.07,34.618
35.260999999999996,35.137,36.411,36.095,35.054,34.763000000000005
35.254,35.116,36.384,36.123000000000005,35.036,34.92
35.25,35.094,36.357,36.152,35.016999999999996,35.086999999999996
35.249,35.071,36.328,36.18,34.998000000000005,35.262
35.25,35.047,36.299,36.211,34.981,35.444
35.253,35.022,36.27,36.242,34.964,35.633
35.257,34.998000000000005,36.243,36.275999999999996,34.948,35.826
35.262,34.974000000000004,36.217,36.313,34.93,36.021
35.266999999999996,34.949,36.195,36.354,34.91,36.218
35.271,34.924,36.175,36.398,34.889,36.413000000000004
35.275,34.898,36.157,36.444,34.864000000000004,36.605
35.277,34.872,36.141999999999996,36.488,34.836999999999996,36.79
35.277,34.847,36.128,36.529,34.806,36.968
35.275,34.823,36.114000000000004,36.564,34.772,37.134
35.271,34.801,36.101,36.591,34.736,37.286
35.266999999999996,34.781,36.088,36.611,34.696999999999996,37.423
35.264,34.764,36.075,36.622,34.655,37.544000000000004
35.260999999999996,34.748000000000005,36.062,36.624,34.611999999999995,37.648
35.260999999999996,34.733000000000004,36.047,36.618,34.568000000000005,37.736999999999995
35.262,34.718,36.031,36.606,34.525,37.812
35.264,34.702,36.014,36.589,34.483000000000004,37.875
35.266,34.686,35.997,36.568000000000005,34.443000000000005,37.927
35.269,34.669000000000004,35.98,36.545,34.407,37.969
35.271,34.653,35.964,36.52,34.374,38.004
35.27,34.637,35.949,36.496,34.345,38.031
35.268,34.622,35.936,36.474000000000004,34.32,38.051
35.266,34.608000000000004,35.923,36.454,34.3,38.064
35.262,34.594,35.91,36.436,34.283,38.07
35.258,34.583,35.897,36.42,34.271,38.068000000000005
35.255,34.571999999999996,35.883,36.404,34.262,38.058
35.251999999999995,34.564,35.868,36.388000000000005,34.256,38.042
35.249,34.556999999999995,35.85,36.372,34.251999999999995,38.02
35.243,34.552,35.829,36.354,34.25,37.995
35.235,34.549,35.806,36.336999999999996,34.249,37.966
35.226,34.548,35.781,36.317,34.248000000000005,37.936
35.217,34.547,35.753,36.296,34.248000000000005,37.905
35.207,34.547,35.722,36.272,34.249,37.873000000000005
35.196999999999996,34.549,35.689,36.247,34.251999999999995,37.841
35.186,34.55,35.652,36.22,34.258,37.809
35.175,34.552,35.613,36.193000000000005,34.269,37.775
35.162,34.554,35.571,36.167,34.286,37.74
35.150999999999996,34.555,35.525,36.143,34.312,37.702
35.14,34.556999999999995,35.477,36.121,34.348,37.66
35.131,34.558,35.425,36.102,34.394,37.615
35.123000000000005,34.559,35.371,36.086,34.451,37.567
35.115,34.561,35.314,36.073,34.521,37.516
35.109,34.564,35.256,36.063,34.602,37.464
35.101,34.57,35.196999999999996,36.055,34.696,37.409
35.093,34.579,35.135999999999996,36.05,34.802,37.354
35.085,34.592,35.075,36.046,34.918,37.297
35.076,34.609,35.012,36.044000000000004,35.045,37.239000000000004
35.068000000000005,34.632,34.949,36.04,35.179,37.18
35.061,34.663000000000004,34.885,36.037,35.32,37.12
35.053000000000004,34.701,34.821999999999996,36.032,35.465,37.058
35.046,34.748000000000005,34.759,36.027,35.611,36.994
35.037,34.804,34.698,36.02,35.757,36.927
35.027,34.868,34.638000000000005,36.012,35.900999999999996,36.857
35.015,34.941,34.579,36.001,36.043,36.786
35.003,35.021,34.523,35.989000000000004,36.178000000000004,36.714
34.99,35.107,34.47,35.976,36.306999999999995,36.641999999999996
34.977,35.198,34.421,35.963,36.428000000000004,36.571
34.965,35.291,34.376999999999995,35.95,36.54,36.504
34.955,35.385,34.339,35.937,36.644,36.442
34.946999999999996,35.477,34.305,35.926,36.738,36.387
34.941,35.567,34.275999999999996,35.916,36.821999999999996,36.339
34.938,35.654,34.25,35.908,36.897,36.299
34.936,35.736,34.228,35.9,36.961,36.266999999999996
34.934,35.811,34.209,35.894,37.016,36.241
34.931,35.88,34.195,35.887,37.062,36.221
34.927,35.942,34.184,35.88,37.099000000000004,36.205
34.921,35.999,34.176,35.873000000000005,37.128,36.192
34.913000000000004,36.05,34.172,35.866,37.150999999999996,36.181
34.903,36.096,34.17,35.859,37.167,36.172
34.891,36.139,34.171,35.851,37.177,36.163000000000004
34.879,36.178000000000004,34.174,35.843,37.181999999999995,36.154
34.867,36.214,34.18,35.833,37.183,36.145
34.856,36.248000000000005,34.188,35.821999999999996,37.181,36.137
34.846,36.279,34.2,35.81,37.176,36.13
34.838,36.309,34.215,35.797,37.169000000000004,36.124
34.832,36.336,34.235,35.783,37.161,36.121
34.826,36.361,34.258,35.771,37.153,36.12
34.821999999999996,36.382,34.286,35.759,37.144,36.122
34.819,36.399,34.318000000000005,35.749,37.133,36.126999999999995
34.816,36.413000000000004,34.354,35.738,37.12,36.133
34.812,36.423,34.394,35.727,37.105,36.141
34.808,36.43,34.439,35.715,37.089,36.148
34.802,36.433,34.489000000000004,35.703,37.071,36.153
34.793,36.434,34.544000000000004,35.69,37.054,36.154
34.782,36.434,34.604,35.676,37.036,36.150999999999996
34.769,36.431999999999995,34.669000000000004,35.66,37.018,36.141999999999996
34.757,36.43,34.74,35.641,37.001,36.126999999999995
34.744,36.427,34.818000000000005,35.621,36.982,36.107
34.73,36.423,34.903,35.598,36.961999999999996,36.084
34.717,36.419000000000004,34.996,35.571999999999996,36.941,36.058
34.704,36.414,35.096,35.545,36.919000000000004,36.032
34.691,36.408,35.203,35.515,36.896,36.006
34.679,36.403,35.314,35.484,36.871,35.981
34.668,36.397,35.429,35.451,36.843,35.959
34.66,36.39,35.546,35.415,36.812,35.938
34.654,36.382,35.663000000000004,35.378,36.779,35.92
34.650999999999996,36.372,35.779,35.339,36.742,35.902
34.650999999999996,36.36,35.891999999999996,35.299,36.701,35.884
34.650999999999996,36.344,36.001,35.26,36.658,35.863
34.652,36.326,36.103,35.222,36.611999999999995,35.839
34.650999999999996,36.305,36.196999999999996,35.186,36.564,35.811
34.649,36.282,36.284,35.153,36.515,35.78
34.645,36.259,36.361999999999995,35.125,36.465,35.745
34.641,36.235,36.431,35.103,36.415,35.707
34.637,36.211999999999996,36.491,35.086,36.366,35.667
34.632,36.188,36.543,35.071999999999996,36.319,35.626
34.626999999999995,36.164,36.586,35.063,36.275,35.584
34.621,36.14,36.621,35.056,36.234,35.543
34.614000000000004,36.114000000000004,36.65,35.053000000000004,36.196999999999996,35.503
34.607,36.086999999999996,36.674,35.053000000000004,36.165,35.464
34.598,36.061,36.694,35.056,36.137,35.427
34.586999999999996,36.036,36.711,35.059,36.113,35.391
34.576,36.010999999999996,36.724000000000004,35.06,36.093,35.355
34.563,35.989000000000004,36.734,35.059,36.078,35.319
34.551,35.968,36.741,35.053000000000004,36.066,35.283
34.539,35.951,36.745,35.044000000000004,36.059,35.247
34.529,35.937,36.747,35.03,36.055,35.211
34.522,35.924,36.747,35.013000000000005,36.052,35.174
34.518,35.914,36.745,34.992,36.051,35.138000000000005
34.516999999999996,35.905,36.739000000000004,34.969,36.051,35.101
34.521,35.897,36.731,34.945,36.053000000000004,35.063
34.53,35.891,36.718,34.918,36.056999999999995,35.025999999999996
34.542,35.888000000000005,36.703,34.891,36.062,34.989000000000004
34.559,35.888000000000005,36.685,34.864000000000004,36.069,34.952
34.582,35.89,36.666,34.838,36.076,34.917
34.61,35.894,36.645,34.814,36.084,34.883
34.643,35.899,36.625,34.791,36.092,34.85
34.681,35.903,36.604,34.77,36.1,34.818000000000005
34.724000000000004,35.908,36.582,34.75,36.107,34.786
34.772,35.911,36.56,34.732,36.113,34.755
34.823,35.912,36.538000000000004,34.713,36.119,34.724000000000004
34.876999999999995,35.912,36.515,34.696,36.123000000000005,34.693000000000005
34.931999999999995,35.909,36.492,34.678000000000004,36.124,34.662
34.989000000000004,35.905,36.467,34.66,36.123000000000005,34.63
35.046,35.9,36.439,34.644,36.119,34.595
35.103,35.893,36.409,34.629,36.111,34.558
35.158,35.884,36.376,34.617,36.1,34.52
35.209,35.873000000000005,36.34,34.608000000000004,36.086,34.48
35.259,35.859,36.301,34.6,36.069,34.442
35.306999999999995,35.844,36.259,34.595,36.049,34.406
35.355,35.826,36.216,34.59,36.027,34.372
35.404,35.806999999999995,36.172,34.586999999999996,36.001999999999995,34.343
35.453,35.788000000000004,36.126999999999995,34.584,35.975,34.317
35.504,35.768,36.080999999999996,34.582,35.948,34.296
35.556,35.748000000000005,36.035,34.58,35.919000000000004,34.279
35.608000000000004,35.729,35.988,34.577,35.89,34.264
35.658,35.711,35.941,34.574,35.86,34.251999999999995
35.705999999999996,35.694,35.893,34.569,35.83,34.24
35.75,35.676,35.844,34.563,35.801,34.228
35.791,35.659,35.796,34.556,35.772,34.214
35.827,35.641,35.747,34.549,35.746,34.198
35.858000000000004,35.623000000000005,35.7,34.541,35.72,34.179
35.885,35.606,35.653,34.533,35.695,34.157
35.908,35.589,35.607,34.523,35.669000000000004,34.134
35.926,35.573,35.562,34.512,35.641999999999996,34.108000000000004
35.939,35.556,35.52,34.499,35.611999999999995,34.08
35.946999999999996,35.539,35.482,34.485,35.580999999999996,34.051
35.949,35.52,35.446,34.468,35.547,34.019
35.946,35.499,35.414,34.45,35.512,33.986999999999995
35.938,35.476,35.385999999999996,34.431,35.476,33.954
35.928000000000004,35.453,35.361999999999995,34.411,35.44,33.922
35.917,35.431,35.344,34.391,35.404,33.894
35.907,35.409,35.33,34.37,35.369,33.87
35.899,35.39,35.321999999999996,34.351,35.334,33.853
35.893,35.375,35.318000000000005,34.332,35.301,33.844
35.89,35.361999999999995,35.317,34.315,35.268,33.846
35.89,35.351,35.319,34.301,35.236,33.861
35.893,35.341,35.321999999999996,34.289,35.205999999999996,33.889
35.898,35.330999999999996,35.327,34.282,35.177,33.931
35.907,35.32,35.334,34.279,35.149,33.988
35.917,35.308,35.341,34.281,35.122,34.06
35.928000000000004,35.294000000000004,35.348,34.288000000000004,35.096,34.147
35.939,35.279,35.356,34.3,35.071,34.249
35.951,35.263000000000005,35.361999999999995,34.318000000000005,35.047,34.366
35.964,35.246,35.368,34.342,35.023,34.498000000000005
35.975,35.228,35.373000000000005,34.372,34.999,34.646
35.986,35.209,35.378,34.409,34.976,34.811
35.996,35.188,35.383,34.454,34.953,34.991
36.003,35.166,35.387,34.504,34.929,35.188
36.009,35.144,35.39,34.561,34.906,35.398
36.012,35.122,35.391,34.623000000000005,34.884,35.621
36.013000000000005,35.101,35.39,34.691,34.863,35.854
36.012,35.082,35.387,34.765,34.843,36.093
36.007,35.066,35.38,34.843,34.823,36.334
35.999,35.053000000000004,35.37,34.926,34.804,36.573
35.986,35.046,35.357,35.010999999999996,34.785,36.806999999999995
35.971,35.047,35.339,35.098,34.765,37.032
35.954,35.055,35.317,35.186,34.745,37.246
35.936,35.069,35.29,35.274,34.724000000000004,37.446999999999996
35.916,35.086,35.258,35.361999999999995,34.703,37.634
35.896,35.104,35.221,35.45,34.683,37.806999999999995
35.875,35.119,35.181,35.539,34.662,37.965
35.855,35.13,35.138000000000005,35.626999999999995,34.641999999999996,38.109
35.836,35.137,35.092,35.715,34.622,38.239000000000004
35.819,35.137,35.044000000000004,35.803000000000004,34.602,38.356
35.803000000000004,35.13,34.995,35.89,34.582,38.46
35.79,35.116,34.946999999999996,35.977,34.563,38.551
35.778,35.095,34.902,36.063,34.545,38.628
35.766999999999996,35.069,34.865,36.147,34.527,38.692
35.756,35.039,34.838,36.229,34.51,38.743
35.746,35.008,34.819,36.308,34.494,38.781
35.736,34.976,34.809,36.384,34.479,38.806999999999995
35.727,34.945,34.805,36.454,34.466,38.821999999999996
35.719,34.914,34.803000000000004,36.519,34.455999999999996,38.828
35.713,34.884,34.801,36.576,34.449,38.827
35.71,34.856,34.796,36.626999999999995,34.448,38.819
35.708,34.829,34.786,36.67,34.453,38.806999999999995
35.707,34.804,34.77,36.707,34.466,38.79
35.707,34.781,34.747,36.738,34.488,38.77
35.707,34.76,34.716,36.764,34.521,38.746
35.707,34.742,34.678000000000004,36.787,34.566,38.719
35.705999999999996,34.728,34.634,36.806999999999995,34.623000000000005,38.687
35.705,34.718,34.584,36.825,34.691,38.650999999999996
35.705,34.71,34.531,36.84,34.771,38.611
35.704,34.705999999999996,34.475,36.854,34.861999999999995,38.567
35.704,34.704,34.418,36.866,34.963,38.52
35.704,34.704,34.361,36.876999999999995,35.076,38.47
35.703,34.705999999999996,34.303000000000004,36.887,35.2,38.418
35.702,34.709,34.247,36.895,35.332,38.364000000000004
35.699,34.714,34.192,36.9,35.473,38.309
35.695,34.718,34.138000000000005,36.903,35.621,38.253
35.689,34.722,34.086,36.903,35.773,38.193000000000005
35.683,34.725,34.034,36.899,35.928000000000004,38.125
35.675,34.727,33.985,36.891999999999996,36.085,38.045
35.666,34.727,33.937,36.881,36.242,37.953
35.656,34.725,33.891,36.866,36.398,37.85
35.645,34.721,33.846,36.848,36.552,37.741
35.632,34.714,33.803000000000004,36.826,36.703,37.626999999999995
35.62,34.705,33.760999999999996,36.803000000000004,36.848,37.515
35.607,34.694,33.721,36.779,36.986999999999995,37.408
35.595,34.681999999999995,33.683,36.756,37.119,37.308
35.583,34.669000000000004,33.647,36.734,37.242,37.219
35.571999999999996,34.656,33.611999999999995,36.713,37.356,37.14
35.56,34.645,33.578,36.694,37.46,37.071
35.549,34.635999999999996,33.546,36.676,37.554,37.013000000000005
35.537,34.631,33.516,36.659,37.638000000000005,36.961999999999996
35.524,34.632,33.489000000000004,36.641999999999996,37.711999999999996,36.919000000000004
35.510999999999996,34.64,33.464,36.624,37.775,36.881
35.497,34.656,33.441,36.605,37.829,36.847
35.48,34.679,33.421,36.585,37.873000000000005,36.816
35.461,34.71,33.404,36.562,37.909,36.786
35.439,34.749,33.389,36.538000000000004,37.937,36.757
35.416,34.797,33.375,36.512,37.957,36.728
35.394,34.853,33.364000000000004,36.485,37.971,36.699
35.372,34.919000000000004,33.353,36.459,37.978,36.669000000000004
35.352,34.995,33.344,36.434,37.98,36.639
35.334,35.079,33.336,36.41,37.978,36.608000000000004
35.318000000000005,35.17,33.33,36.388000000000005,37.972,36.578
35.303000000000004,35.269,33.325,36.369,37.964,36.548
35.291,35.372,33.321999999999996,36.353,37.955,36.519
35.28,35.477,33.323,36.339,37.944,36.492
35.271,35.582,33.328,36.327,37.933,36.468
35.263000000000005,35.686,33.339,36.318000000000005,37.921,36.448
35.255,35.786,33.355,36.311,37.908,36.431999999999995
35.248000000000005,35.883,33.376999999999995,36.305,37.893,36.421
35.241,35.975,33.407,36.299,37.876,36.412
35.234,36.061,33.444,36.293,37.858000000000004,36.406
35.225,36.14,33.49,36.288000000000004,37.836,36.400999999999996
35.215,36.211,33.545,36.283,37.812,36.396
35.203,36.273,33.609,36.279,37.785,36.391
35.19,36.326,33.681,36.275999999999996,37.757,36.384
35.176,36.368,33.762,36.274,37.726,36.376
35.163000000000004,36.400999999999996,33.85,36.273,37.692,36.366
35.149,36.425,33.945,36.272,37.657,36.354
35.135999999999996,36.442,34.046,36.273,37.62,36.342
35.123000000000005,36.454,34.152,36.274,37.582,36.329
35.11,36.461999999999996,34.260999999999996,36.274,37.544000000000004,36.315
35.099000000000004,36.468,34.373000000000005,36.274,37.506,36.302
35.089,36.474000000000004,34.486,36.272,37.468,36.287
35.08,36.48,34.599000000000004,36.268,37.431,36.27
35.071999999999996,36.485,34.711999999999996,36.263000000000005,37.395,36.251
35.063,36.489000000000004,34.821,36.254,37.359,36.229
35.053000000000004,36.493,34.927,36.241,37.323,36.203
35.041,36.495,35.028,36.224000000000004,37.288000000000004,36.174
35.029,36.496,35.123000000000005,36.202,37.251999999999995,36.141
35.016999999999996,36.497,35.211999999999996,36.178000000000004,37.216,36.105
35.006,36.497,35.294000000000004,36.15,37.18,36.067
34.997,36.498000000000005,35.367,36.122,37.144,36.027
34.989000000000004,36.499,35.431999999999995,36.093,37.107,35.986999999999995
34.98,36.501,35.486999999999995,36.064,37.07,35.946999999999996
34.971,36.505,35.533,36.034,37.033,35.908
34.961,36.51,35.57,36.005,36.995,35.871
34.948,36.516999999999996,35.6,35.977,36.957,35.835
34.934,36.527,35.624,35.95,36.918,35.8
34.919000000000004,36.538000000000004,35.643,35.925,36.878,35.766
34.903,36.552,35.656,35.903,36.839,35.732
34.887,36.568000000000005,35.666,35.883,36.8,35.698
34.873000000000005,36.584,35.673,35.865,36.762,35.663000000000004
34.861,36.6,35.676,35.848,36.725,35.626
34.85,36.615,35.676,35.832,36.69,35.586999999999996
34.839,36.626999999999995,35.673,35.816,36.658,35.546
34.829,36.637,35.667,35.8,36.63,35.504
34.818000000000005,36.641999999999996,35.658,35.785,36.605,35.46
34.808,36.641999999999996,35.646,35.768,36.583,35.415
34.798,36.637,35.63,35.751,36.566,35.369
34.788000000000004,36.626999999999995,35.611,35.733000000000004,36.551,35.323
34.781,36.611,35.588,35.713,36.54,35.275999999999996
34.775,36.592,35.565,35.692,36.532,35.23
34.77,36.57,35.545,35.67,36.525999999999996,35.184
34.766,36.546,35.53,35.648,36.521,35.138000000000005
34.762,36.52,35.519,35.626,36.516999999999996,35.093
34.757,36.494,35.508,35.605,36.510999999999996,35.048
34.751,36.468,35.495,35.584,36.503,35.003
34.743,36.441,35.479,35.564,36.492,34.958
34.735,36.414,35.457,35.546,36.48,34.912
34.726,36.387,35.43,35.528,36.467,34.867
34.719,36.361,35.398,35.51,36.452,34.821
34.713,36.336,35.359,35.493,36.436,34.774
34.711,36.311,35.315,35.476,36.42,34.728
34.713,36.288000000000004,35.265,35.458,36.404,34.681
34.717,36.266,35.211,35.44,36.388000000000005,34.634
34.722,36.244,35.154,35.42,36.371,34.586999999999996
34.726,36.222,35.096,35.397,36.355,34.541
34.727,36.2,35.036,35.371,36.339,34.495
34.724000000000004,36.178000000000004,34.977,35.341,36.323,34.45
34.718,36.159,34.919000000000004,35.306999999999995,36.308,34.407
34.708,36.141,34.861999999999995,35.271,36.291,34.366
34.696,36.126,34.809,35.234,36.273,34.328
34.681999999999995,36.113,34.758,35.196999999999996,36.251999999999995,34.291
34.667,36.104,34.711,35.161,36.228,34.257
34.652,36.097,34.668,35.126,36.2,34.226
34.635999999999996,36.093,34.629,35.092,36.167,34.196999999999996
34.622,36.091,34.595,35.061,36.131,34.171
34.608000000000004,36.092,34.565,35.032,36.093,34.147
34.596,36.093,34.54,35.006,36.052,34.124
34.585,36.096,34.518,34.982,36.009,34.103
34.575,36.098,34.499,34.961,35.964,34.083
34.568000000000005,36.102,34.482,34.943000000000005,35.918,34.064
34.563,36.104,34.469,34.929,35.872,34.047
34.559,36.107,34.458,34.918,35.826,34.032
34.556999999999995,36.108000000000004,34.45,34.91,35.782,34.016999999999996
34.555,36.107,34.443000000000005,34.904,35.741,34.003
34.554,36.105,34.439,34.9,35.701,33.989000000000004
34.554,36.101,34.436,34.898,35.663000000000004,33.974000000000004
34.556999999999995,36.096,34.435,34.897,35.626999999999995,33.958
34.562,36.091,34.434,34.896,35.593,33.942
34.571,36.085,34.435,34.896,35.559,33.925
34.583,36.078,34.437,34.896,35.525,33.908
34.598,36.071,34.44,34.896,35.49,33.889
34.618,36.063,34.445,34.895,35.453,33.869
34.643,36.054,34.45,34.893,35.414,33.848
34.673,36.043,34.455,34.888000000000005,35.373000000000005,33.825
34.713,36.031,34.459,34.881,35.33,33.8
34.768,36.016,34.461999999999996,34.872,35.286,33.775
34.838,36.0,34.461999999999996,34.859,35.242,33.749
34.923,35.981,34.459,34.844,35.199,33.725
35.021,35.959,34.452,34.827,35.157,33.702
35.128,35.935,34.441,34.806999999999995,35.117,33.683
35.239000000000004,35.908,34.426,34.787,35.08,33.671
35.352,35.878,34.406,34.766999999999996,35.045,33.666
35.46,35.845,34.381,34.747,35.013000000000005,33.673
35.562,35.81,34.353,34.726,34.984,33.693000000000005
35.653,35.773,34.323,34.705999999999996,34.957,33.729
35.732,35.736,34.291,34.686,34.931999999999995,33.781
35.8,35.699,34.258,34.665,34.909,33.851
35.857,35.663000000000004,34.225,34.645,34.887,33.939
35.904,35.629,34.191,34.624,34.865,34.046
35.943000000000005,35.599000000000004,34.159,34.603,34.842,34.17
35.975,35.571999999999996,34.128,34.580999999999996,34.817,34.312
36.001,35.549,34.099000000000004,34.561,34.79,34.471
36.024,35.529,34.073,34.542,34.762,34.646
36.045,35.514,34.049,34.525,34.734,34.836999999999996
36.064,35.501,34.025,34.51,34.707,35.041
36.083,35.491,34.001999999999995,34.499,34.681,35.258
36.101,35.482,33.98,34.491,34.657,35.486
36.118,35.474000000000004,33.958,34.488,34.635999999999996,35.721
36.133,35.465,33.937,34.486999999999995,34.617,35.961999999999996
36.149,35.455999999999996,33.916,34.49,34.599000000000004,36.205
36.165,35.446,33.896,34.496,34.583,36.448
36.181,35.436,33.878,34.504,34.569,36.686
36.196999999999996,35.424,33.86,34.513000000000005,34.555,36.918
36.211999999999996,35.412,33.844,34.525,34.542,37.141999999999996
36.227,35.399,33.83,34.539,34.529,37.355
36.241,35.385,33.818000000000005,34.554,34.516,37.558
36.253,35.368,33.808,34.57,34.503,37.75
36.263000000000005,35.351,33.801,34.586999999999996,34.49,37.93
36.271,35.330999999999996,33.796,34.605,34.477,38.098
36.275999999999996,35.311,33.793,34.625,34.465,38.255
36.278,35.29,33.792,34.646,34.454,38.398
36.279,35.268,33.792,34.665,34.445,38.528
36.281,35.246,33.794000000000004,34.685,34.44,38.643
36.284,35.223,33.795,34.714,34.439,38.742
36.29,35.199,33.795,34.758,34.444,38.826
36.297,35.176,33.794000000000004,34.819,34.455999999999996,38.896
36.304,35.150999999999996,33.791,34.895,34.476,38.952
36.312,35.126999999999995,33.785,34.985,34.503,38.994
36.318000000000005,35.102,33.777,35.085,34.539,39.025
36.324,35.077,33.766,35.193000000000005,34.584,39.045
36.329,35.053000000000004,33.751,35.306,34.639,39.056
36.333,35.029,33.733000000000004,35.423,34.704,39.059
36.335,35.006,33.713,35.541,34.78,39.056
36.336999999999996,34.984,33.691,35.66,34.867,39.047
36.336,34.961999999999996,33.669000000000004,35.777,34.964,39.032
36.334,34.942,33.648,35.89,35.071999999999996,39.010999999999996
36.330999999999996,34.923,33.629,35.997,35.191,38.984
36.328,34.906,33.61,36.099000000000004,35.321,38.951
36.324,34.891,33.594,36.195,35.461999999999996,38.913000000000004
36.321,34.878,33.578,36.286,35.611,38.869
36.317,34.867,33.566,36.372,35.768,38.821
36.311,34.858000000000004,33.556,36.454,35.931999999999995,38.769
36.303000000000004,34.849000000000004,33.549,36.53,36.102,38.714
36.291,34.841,33.543,36.602,36.275,38.657
36.275999999999996,34.832,33.537,36.668,36.449,38.599000000000004
36.258,34.823,33.531,36.73,36.624,38.539
36.239000000000004,34.814,33.524,36.786,36.795,38.479
36.221,34.804,33.516,36.838,36.961999999999996,38.416
36.204,34.794000000000004,33.506,36.885999999999996,37.122,38.352
36.188,34.784,33.494,36.931,37.273,38.284
36.173,34.774,33.479,36.971,37.412,38.213
36.158,34.763000000000005,33.461999999999996,37.008,37.54,38.139
36.144,34.751,33.443000000000005,37.039,37.654,38.06
36.13,34.739000000000004,33.421,37.067,37.756,37.976
36.117,34.726,33.397,37.089,37.846,37.89
36.105,34.713,33.372,37.107,37.923,37.802
36.093,34.701,33.347,37.119,37.989000000000004,37.711999999999996
36.080999999999996,34.689,33.321,37.125,38.042,37.623000000000005
36.069,34.677,33.297,37.126,38.085,37.533
36.056999999999995,34.665,33.275999999999996,37.122,38.117,37.445
36.047,34.652,33.258,37.114000000000004,38.141,37.357
36.038000000000004,34.639,33.244,37.103,38.159,37.272
36.032,34.625,33.236,37.089,38.171,37.188
36.027,34.609,33.235,37.071999999999996,38.18,37.108000000000004
36.024,34.593,33.24,37.054,38.186,37.03
36.021,34.576,33.254,37.036,38.189,36.955999999999996
36.019,34.562,33.277,37.018,38.187,36.887
36.016,34.55,33.31,37.001,38.181,36.821999999999996
36.010999999999996,34.54,33.354,36.984,38.169000000000004,36.763000000000005
36.006,34.535,33.406,36.969,38.154,36.709
35.999,34.533,33.467,36.954,38.134,36.659
35.992,34.537,33.534,36.938,38.111,36.615
35.985,34.548,33.608000000000004,36.922,38.086999999999996,36.574
35.98,34.567,33.687,36.904,38.063,36.538000000000004
35.975,34.594,33.771,36.884,38.038000000000004,36.506
35.972,34.629,33.858000000000004,36.861999999999995,38.013000000000005,36.479
35.97,34.673,33.946,36.84,37.988,36.455999999999996
35.967,34.726,34.035,36.817,37.961999999999996,36.437
35.964,34.787,34.123000000000005,36.794000000000004,37.935,36.423
35.96,34.856,34.21,36.771,37.907,36.412
35.954,34.931,34.294000000000004,36.749,37.878,36.404
35.946999999999996,35.012,34.376999999999995,36.728,37.847,36.4
35.938,35.099000000000004,34.455999999999996,36.707,37.815,36.397
35.926,35.193000000000005,34.532,36.688,37.78,36.396
35.913000000000004,35.291,34.603,36.669000000000004,37.742,36.394
35.897,35.395,34.669000000000004,36.650999999999996,37.703,36.391999999999996
35.879,35.501999999999995,34.73,36.634,37.661,36.387
35.86,35.611,34.784,36.618,37.618,36.381
35.84,35.72,34.830999999999996,36.602,37.573,36.372
35.819,35.826,34.872,36.585,37.525999999999996,36.363
35.798,35.927,34.907,36.567,37.479,36.354
35.778,36.024,34.935,36.548,37.43,36.345
35.757,36.114000000000004,34.955999999999996,36.529,37.38,36.336999999999996
35.736999999999995,36.196999999999996,34.972,36.508,37.33,36.328
35.716,36.274,34.983000000000004,36.488,37.28,36.321
35.696,36.342,34.991,36.467,37.231,36.315
35.675,36.402,34.996,36.446999999999996,37.183,36.311
35.654,36.453,34.999,36.428000000000004,37.135999999999996,36.306999999999995
35.632,36.497,35.0,36.411,37.089,36.3
35.606,36.533,34.997,36.396,37.042,36.29
35.571999999999996,36.563,34.993,36.383,36.996,36.275999999999996
35.529,36.586999999999996,34.986,36.372,36.95,36.257
35.481,36.607,34.976,36.361999999999995,36.906,36.235
35.428000000000004,36.624,34.964,36.352,36.863,36.21
35.375,36.638000000000005,34.951,36.342,36.821999999999996,36.181999999999995
35.326,36.649,34.936,36.332,36.782,36.153
35.281,36.657,34.92,36.321999999999996,36.744,36.122
35.245,36.662,34.903,36.312,36.707,36.091
35.216,36.663000000000004,34.884,36.3,36.671,36.059
35.196,36.662,34.866,36.288000000000004,36.637,36.025
35.186,36.659,34.847,36.274,36.606,35.988
35.185,36.656,34.827,36.259,36.578,35.946999999999996
35.193000000000005,36.652,34.808,36.243,36.554,35.900999999999996
35.207,36.65,34.789,36.226,36.534,35.85
35.227,36.649,34.769,36.208,36.519,35.794000000000004
35.248000000000005,36.650999999999996,34.75,36.192,36.506,35.734
35.27,36.654,34.731,36.176,36.496,35.672
35.29,36.657,34.711,36.162,36.486999999999995,35.609
35.306999999999995,36.661,34.691,36.148,36.478,35.545
35.319,36.664,34.671,36.135999999999996,36.469,35.481
35.325,36.668,34.652,36.124,36.46,35.418
35.325,36.671,34.633,36.113,36.45,35.356
35.32,36.675,34.615,36.103,36.438,35.295
35.309,36.677,34.595,36.093,36.425,35.235
35.295,36.679,34.576,36.084,36.412,35.177
35.277,36.679,34.555,36.075,36.398,35.118
35.257,36.678000000000004,34.534,36.064,36.382,35.06
35.236999999999995,36.674,34.513000000000005,36.052,36.366,35.0
35.217,36.668,34.491,36.039,36.348,34.94
35.198,36.66,34.469,36.024,36.329,34.879
35.18,36.65,34.446999999999996,36.007,36.309,34.819
35.163000000000004,36.638000000000005,34.426,35.989000000000004,36.286,34.76
35.144,36.625,34.407,35.97,36.260999999999996,34.703
35.124,36.611,34.388000000000005,35.95,36.234,34.647
35.103,36.597,34.372,35.929,36.204,34.594
35.080999999999996,36.583,34.358000000000004,35.907,36.172,34.543
35.061,36.569,34.347,35.883,36.137,34.495
35.043,36.555,34.338,35.857,36.099000000000004,34.45
35.029,36.541,34.33,35.830999999999996,36.059,34.409
35.018,36.525999999999996,34.324,35.803000000000004,36.016,34.372
35.009,36.508,34.318000000000005,35.774,35.973,34.339
35.0,36.489000000000004,34.314,35.743,35.929,34.308
34.99,36.466,34.311,35.71,35.885,34.281
34.98,36.441,34.308,35.674,35.841,34.256
34.969,36.413000000000004,34.305,35.635,35.798,34.232
34.958,36.383,34.301,35.593,35.755,34.21
34.946999999999996,36.352,34.296,35.548,35.71,34.188
34.937,36.319,34.291,35.5,35.665,34.165
34.927,36.285,34.287,35.45,35.62,34.141
34.917,36.25,34.284,35.398,35.574,34.116
34.907,36.216,34.283,35.344,35.529,34.089
34.896,36.184,34.283,35.288000000000004,35.485,34.062
34.885,36.154,34.285,35.233000000000004,35.44,34.035
34.872,36.126999999999995,34.289,35.178000000000004,35.395,34.008
34.861,36.103,34.295,35.125,35.35,33.983000000000004
34.85,36.082,34.303000000000004,35.075,35.304,33.96
34.839,36.065,34.312,35.028,35.258,33.94
34.83,36.05,34.321999999999996,34.985,35.213,33.921
34.821,36.039,34.330999999999996,34.946,35.168,33.904
34.813,36.03,34.338,34.912,35.123000000000005,33.888000000000005
34.805,36.023,34.342,34.883,35.08,33.872
34.797,36.016999999999996,34.344,34.859,35.037,33.853
34.789,36.013000000000005,34.342,34.84,34.996,33.832
34.78,36.01,34.338,34.824,34.955,33.808
34.771,36.009,34.332,34.812,34.916,33.781
34.762,36.010999999999996,34.324,34.802,34.876999999999995,33.751999999999995
34.751,36.014,34.314,34.794000000000004,34.838,33.722
34.74,36.018,34.304,34.787,34.801,33.691
34.728,36.023,34.293,34.781,34.764,33.661
34.717,36.029,34.283,34.774,34.729,33.635
34.705,36.035,34.274,34.766999999999996,34.695,33.611999999999995
34.694,36.039,34.264,34.759,34.664,33.595
34.684,36.043,34.254,34.75,34.634,33.585
34.672,36.045,34.243,34.739000000000004,34.606,33.583
34.66,36.046,34.231,34.728,34.578,33.591
34.647,36.045,34.217,34.714,34.55,33.611
34.632,36.043,34.2,34.698,34.524,33.646
34.618,36.037,34.18,34.68,34.497,33.696
34.605,36.029,34.159,34.659,34.472,33.763000000000005
34.592,36.018,34.135,34.637,34.448,33.848
34.580999999999996,36.001999999999995,34.111999999999995,34.613,34.426,33.952
34.571,35.982,34.086999999999996,34.588,34.406,34.075
34.563,35.959,34.064,34.563,34.387,34.216
34.558,35.934,34.04,34.537,34.368,34.375
34.559,35.909,34.016999999999996,34.512,34.35,34.55
34.567,35.883,33.995,34.489000000000004,34.332,34.74
34.584,35.858000000000004,33.973,34.466,34.314,34.944
34.61,35.833,33.953,34.446,34.296,35.16
34.644,35.809,33.934,34.427,34.278,35.387
34.686,35.783,33.917,34.408,34.26,35.624
34.734,35.757,33.900999999999996,34.389,34.24,35.868
34.787,35.73,33.885999999999996,34.371,34.219,36.118
34.846,35.701,33.872,34.353,34.196999999999996,36.37
34.91,35.672,33.857,34.335,34.175,36.624
34.98,35.643,33.844,34.317,34.152,36.876
35.055,35.613,33.83,34.301,34.13,37.122
35.135,35.582,33.816,34.286,34.109,37.36
35.217,35.55,33.802,34.273,34.089,37.586999999999996
35.303000000000004,35.516999999999996,33.787,34.262,34.071,37.801
35.389,35.481,33.773,34.251999999999995,34.055,38.0
35.475,35.444,33.759,34.244,34.041,38.185
35.56,35.406,33.748000000000005,34.236999999999995,34.029,38.353
35.643,35.368,33.738,34.231,34.02,38.506
35.723,35.332,33.731,34.225,34.014,38.643
35.802,35.298,33.726,34.218,34.010999999999996,38.763000000000005
35.881,35.268,33.725,34.211999999999996,34.015,38.866
35.961999999999996,35.242,33.726,34.204,34.025999999999996,38.953
36.044000000000004,35.221,33.728,34.195,34.046,39.024
36.126999999999995,35.204,33.732,34.185,34.077,39.079
36.208,35.189,33.738,34.173,34.119,39.119
36.287,35.178000000000004,33.743,34.161,34.174,39.146
36.359,35.169000000000004,33.748000000000005,34.149,34.242,39.159
36.423,35.163000000000004,33.751999999999995,34.138000000000005,34.324,39.162
36.476,35.159,33.754,34.13,34.419000000000004,39.155
36.515,35.157,33.753,34.126,34.527,39.141
36.542,35.156,33.751,34.126,34.65,39.121
36.558,35.154,33.747,34.133,34.787,39.097
36.565,35.150999999999996,33.741,34.146,34.939,39.068000000000005
36.567,35.145,33.732,34.168,35.102,39.037
36.565,35.135999999999996,33.722,34.2,35.273,39.001999999999995
36.56,35.122,33.71,34.245,35.45,38.964
36.554,35.105,33.696999999999996,34.304,35.63,38.922
36.547,35.085,33.684,34.376,35.811,38.876
36.538000000000004,35.063,33.669000000000004,34.461,35.993,38.825
36.529,35.04,33.653,34.56,36.172,38.769
36.519,35.016,33.635,34.67,36.348,38.708
36.509,34.992,33.616,34.79,36.519,38.643
36.498000000000005,34.968,33.597,34.921,36.683,38.574
36.486,34.945,33.578,35.058,36.839,38.499
36.474000000000004,34.921,33.56,35.201,36.984,38.42
36.463,34.898,33.542,35.346,37.119,38.336999999999996
36.452,34.875,33.524,35.493,37.241,38.251
36.442,34.852,33.507,35.638000000000005,37.351,38.161
36.433,34.829,33.491,35.78,37.448,38.069
36.424,34.805,33.477,35.916,37.532,37.975
36.417,34.782,33.467,36.044000000000004,37.604,37.879
36.412,34.759,33.461999999999996,36.164,37.665,37.781
36.408,34.736999999999995,33.461999999999996,36.273,37.717,37.681999999999995
36.407,34.715,33.47,36.371,37.760999999999996,37.583
36.408,34.694,33.485,36.459,37.797,37.484
36.41,34.674,33.508,36.537,37.826,37.385999999999996
36.412,34.655,33.54,36.606,37.848,37.291
36.412,34.639,33.582,36.666,37.864000000000004,37.198
36.409,34.625,33.632,36.718,37.873000000000005,37.11
36.403,34.613,33.692,36.763000000000005,37.876999999999995,37.025999999999996
36.394,34.603,33.759,36.8,37.875,36.948
36.384,34.593,33.833,36.830999999999996,37.868,36.875
36.373000000000005,34.584,33.913000000000004,36.855,37.857,36.806999999999995
36.36,34.575,33.998000000000005,36.875,37.841,36.744
36.347,34.565,34.086,36.889,37.821,36.686
36.333,34.556,34.177,36.899,37.797,36.632
36.317,34.547,34.268,36.906,37.769,36.583
36.299,34.54,34.36,36.91,37.735,36.537
36.28,34.537,34.448,36.911,37.698,36.496
36.260999999999996,34.537,34.531,36.909,37.658,36.459
36.242,34.541,34.608000000000004,36.904,37.616,36.427
36.222,34.549,34.679,36.897,37.571999999999996,36.399
36.202,34.56,34.743,36.889,37.528,36.376
36.181,34.576,34.802,36.88,37.483000000000004,36.357
36.162,34.596,34.855,36.87,37.438,36.342
36.144,34.621,34.902,36.861999999999995,37.393,36.33
36.128,34.654,34.946,36.853,37.348,36.321
36.111,34.693000000000005,34.984,36.846,37.303000000000004,36.313
36.095,34.74,35.019,36.839,37.259,36.306999999999995
36.077,34.793,35.05,36.830999999999996,37.214,36.302
36.058,34.853,35.076,36.824,37.17,36.299
36.04,34.921,35.099000000000004,36.818000000000005,37.126,36.298
36.022,34.995,35.118,36.812,37.08,36.298
36.006,35.077,35.133,36.806999999999995,37.033,36.298
35.99,35.164,35.145,36.801,36.983000000000004,36.297
35.976,35.257,35.154,36.794000000000004,36.931,36.297
35.961999999999996,35.355,35.161,36.786,36.876,36.296
35.949,35.457,35.164,36.775,36.819,36.295
35.937,35.561,35.164,36.760999999999996,36.759,36.292
35.927,35.666,35.163000000000004,36.744,36.698,36.288000000000004
35.919000000000004,35.769,35.159,36.724000000000004,36.635999999999996,36.282
35.911,35.87,35.153,36.701,36.575,36.273
35.905,35.965,35.147,36.673,36.515,36.263000000000005
35.897,36.052,35.139,36.641999999999996,36.457,36.25
35.889,36.132,35.13,36.607,36.403,36.235
35.879,36.203,35.119,36.569,36.352,36.218
35.867,36.266999999999996,35.107,36.529,36.306,36.198
35.853,36.324,35.093,36.486,36.264,36.173
35.836999999999996,36.376,35.079,36.441,36.227,36.145
35.819,36.425,35.063,36.395,36.195,36.111
35.801,36.47,35.046,36.347,36.168,36.073
35.781,36.512,35.028,36.299,36.148,36.03
35.76,36.55,35.01,36.251,36.132,35.983000000000004
35.739000000000004,36.585,34.992,36.205,36.121,35.934
35.716,36.616,34.974000000000004,36.162,36.111999999999995,35.883
35.693000000000005,36.643,34.955999999999996,36.121,36.104,35.830999999999996
35.669000000000004,36.667,34.939,36.082,36.097,35.78
35.646,36.688,34.922,36.046,36.09,35.73
35.623000000000005,36.705999999999996,34.905,36.010999999999996,36.082,35.681999999999995
35.601,36.721,34.89,35.979,36.073,35.635
35.58,36.732,34.876,35.951,36.062,35.588
35.558,36.736999999999995,34.861999999999995,35.927,36.05,35.542
35.536,36.736999999999995,34.849000000000004,35.906,36.036,35.494
35.514,36.731,34.835,35.89,36.02,35.445
35.492,36.718,34.821,35.878,36.001,35.394
35.472,36.701,34.806999999999995,35.869,35.981,35.343
35.454,36.681,34.792,35.863,35.96,35.292
35.436,36.661,34.775999999999996,35.861,35.94,35.239000000000004
35.418,36.643,34.762,35.863,35.92,35.183
35.397,36.626999999999995,34.747,35.867,35.900999999999996,35.126
35.374,36.615,34.734,35.875,35.884,35.069
35.348,36.604,34.722,35.884,35.868,35.014
35.321,36.595,34.711999999999996,35.894,35.853,34.961999999999996
35.294000000000004,36.585,34.705,35.905,35.838,34.914
35.268,36.576,34.699,35.916,35.821,34.87
35.242,36.567,34.695,35.927,35.802,34.83
35.217,36.558,34.694,35.937,35.781,34.792
35.194,36.548,34.694,35.946,35.757,34.755
35.17,36.538000000000004,34.694,35.953,35.73,34.719
35.148,36.525999999999996,34.695,35.96,35.699,34.683
35.125,36.512,34.695,35.965,35.667,34.647
35.104,36.495,34.696,35.966,35.634,34.61
35.084,36.475,34.696999999999996,35.964,35.6,34.573
35.065,36.452,34.696999999999996,35.958,35.565,34.535
35.046,36.425,34.696999999999996,35.949,35.53,34.496
35.027,36.396,34.696999999999996,35.937,35.494,34.458
35.009,36.365,34.696999999999996,35.921,35.459,34.42
34.991,36.333,34.696,35.902,35.424,34.384
34.973,36.299,34.696999999999996,35.88,35.39,34.348
34.954,36.265,34.696999999999996,35.853,35.357,34.314
34.934,36.23,34.696999999999996,35.823,35.324,34.281
34.913000000000004,36.196999999999996,34.696,35.79,35.292,34.25
34.89,36.165,34.695,35.754,35.259,34.22
34.866,36.135,34.694,35.716,35.223,34.192
34.841,36.108000000000004,34.693000000000005,35.676,35.184,34.166
34.815,36.083,34.692,35.634,35.144,34.141
34.79,36.062,34.693000000000005,35.591,35.101,34.117
34.766999999999996,36.043,34.695,35.548,35.056999999999995,34.092
34.746,36.027,34.696999999999996,35.505,35.012,34.065
34.726,36.014,34.699,35.463,34.965,34.036
34.709,36.003,34.701,35.422,34.919000000000004,34.006
34.691,35.995,34.703,35.382,34.872,33.975
34.673,35.988,34.704,35.345,34.827,33.943000000000005
34.654,35.984,34.705999999999996,35.309,34.782,33.91
34.635,35.981,34.707,35.275,34.74,33.879
34.616,35.978,34.708,35.243,34.699,33.85
34.598,35.975,34.708,35.216,34.66,33.824
34.58,35.97,34.705999999999996,35.191,34.623000000000005,33.802
34.564,35.965,34.703,35.17,34.588,33.783
34.548,35.957,34.699,35.152,34.555,33.766999999999996
34.533,35.948,34.693000000000005,35.137,34.524,33.753
34.519,35.937,34.686,35.123000000000005,34.494,33.742
34.507,35.924,34.678000000000004,35.111,34.464,33.733000000000004
34.497,35.909,34.668,35.097,34.431999999999995,33.727
34.489000000000004,35.89,34.658,35.080999999999996,34.399,33.726
34.482,35.868,34.648,35.063,34.365,33.731
34.475,35.843,34.637,35.042,34.33,33.746
34.468,35.817,34.625,35.018,34.295,33.773
34.461,35.791,34.613,34.99,34.260999999999996,33.814
34.452,35.766999999999996,34.6,34.96,34.223,33.872
34.441,35.745,34.586999999999996,34.926,34.18,33.949
34.43,35.726,34.574,34.888000000000005,34.133,34.048
34.418,35.711,34.562,34.848,34.083,34.169000000000004
34.406,35.7,34.549,34.806,34.034,34.312
34.394,35.691,34.534,34.762,33.986999999999995,34.477
34.381,35.685,34.518,34.72,33.945,34.662
34.366,35.681,34.499,34.679,33.907,34.865
34.35,35.678000000000004,34.479,34.64,33.876,35.085
34.333,35.675,34.459,34.605,33.852,35.318000000000005
34.317,35.672,34.439,34.574,33.833,35.562
34.301,35.668,34.42,34.546,33.82,35.815
34.286,35.662,34.4,34.522,33.81,36.074
34.273,35.654,34.38,34.501999999999995,33.804,36.336
34.262,35.643,34.361999999999995,34.485,33.8,36.597
34.251999999999995,35.629,34.344,34.472,33.798,36.854
34.242,35.613,34.328,34.461,33.797,37.104
34.231,35.594,34.312,34.45,33.797,37.346
34.218,35.573,34.295,34.439,33.797,37.576
34.203,35.55,34.278,34.428000000000004,33.799,37.794000000000004
34.186,35.525,34.259,34.416,33.8,37.997
34.168,35.5,34.24,34.404,33.8,38.185
34.149,35.475,34.22,34.389,33.799,38.357
34.13,35.451,34.201,34.373000000000005,33.797,38.513000000000005
34.111999999999995,35.427,34.183,34.357,33.794000000000004,38.650999999999996
34.097,35.403,34.167,34.34,33.791,38.773
34.085,35.378,34.150999999999996,34.323,33.789,38.876
34.075,35.353,34.135999999999996,34.306999999999995,33.788000000000004,38.963
34.068000000000005,35.325,34.122,34.292,33.79,39.033
34.064,35.295,34.11,34.278,33.795,39.088
34.063,35.263000000000005,34.098,34.265,33.806999999999995,39.129
34.066,35.228,34.086999999999996,34.253,33.826,39.158
34.074,35.191,34.076,34.241,33.856,39.175
34.085,35.152,34.064,34.228,33.897,39.181999999999995
34.102,35.111999999999995,34.051,34.214,33.951,39.18
34.125,35.073,34.037,34.198,34.02,39.171
34.152,35.034,34.022,34.18,34.105,39.153
34.185,34.995,34.007,34.159,34.205999999999996,39.128
34.223,34.955999999999996,33.992,34.137,34.324,39.094
34.266,34.919000000000004,33.978,34.114000000000004,34.458,39.053000000000004
34.315,34.885,33.965,34.091,34.607,39.005
34.371,34.853,33.955,34.071,34.771,38.95
34.434,34.825,33.946,34.053000000000004,34.946,38.89
34.503,34.799,33.94,34.039,35.13,38.826
34.58,34.777,33.937,34.027,35.32,38.758
34.663000000000004,34.757,33.935,34.018,35.513000000000005,38.687
34.751,34.739000000000004,33.934,34.014,35.707,38.615
34.844,34.722,33.935,34.012,35.899,38.541
34.939,34.707,33.938,34.014,36.086,38.466
35.035,34.693000000000005,33.941,34.018,36.268,38.389
35.131,34.681,33.945,34.024,36.441,38.31
35.228,34.67,33.95,34.033,36.605,38.228
35.325,34.66,33.953,34.045,36.757,38.143
35.42,34.650999999999996,33.955999999999996,34.062,36.896,38.055
35.510999999999996,34.643,33.958,34.085,37.025,37.964
35.599000000000004,34.634,33.96,34.114000000000004,37.141999999999996,37.87
35.68,34.624,33.964,34.150999999999996,37.25,37.774
35.756,34.611999999999995,33.969,34.195,37.347,37.677
35.826,34.598,33.978,34.249,37.433,37.58
35.89,34.580999999999996,33.989000000000004,34.312,37.51,37.482
35.949,34.562,34.005,34.385,37.575,37.385
36.003,34.541,34.025999999999996,34.466,37.63,37.289
36.052,34.518,34.051,34.556,37.673,37.195
36.096,34.494,34.080999999999996,34.654,37.705,37.102
36.134,34.47,34.115,34.757,37.725,37.01
36.167,34.446,34.153,34.865,37.735,36.919000000000004
36.195,34.423,34.193000000000005,34.979,37.734,36.83
36.218,34.400999999999996,34.236,35.096,37.723,36.742
36.238,34.381,34.281,35.216,37.702,36.657
36.255,34.361999999999995,34.327,35.338,37.673,36.575
36.27,34.344,34.375,35.461,37.635999999999996,36.498000000000005
36.284,34.329,34.426,35.584,37.593,36.426
36.296,34.316,34.478,35.707,37.545,36.361
36.306999999999995,34.304,34.53,35.828,37.494,36.304
36.316,34.292,34.583,35.946,37.443000000000005,36.256
36.323,34.28,34.635999999999996,36.06,37.391,36.217
36.327,34.269,34.689,36.169000000000004,37.342,36.185
36.327,34.257,34.742,36.272,37.295,36.161
36.323,34.246,34.795,36.366,37.251999999999995,36.141
36.318000000000005,34.235,34.846,36.453,37.211999999999996,36.125
36.311,34.225,34.896,36.531,37.177,36.11
36.305,34.217,34.943000000000005,36.6,37.146,36.095
36.3,34.211,34.988,36.66,37.118,36.08
36.298,34.205999999999996,35.028,36.711999999999996,37.093,36.064
36.298,34.201,35.065,36.754,37.068000000000005,36.049
36.301,34.196999999999996,35.098,36.788000000000004,37.042,36.034
36.305,34.193000000000005,35.126999999999995,36.814,37.013000000000005,36.022
36.311,34.189,35.150999999999996,36.836,36.979,36.013000000000005
36.317,34.185,35.171,36.853,36.939,36.008
36.321999999999996,34.181999999999995,35.186,36.867,36.891,36.006
36.327,34.179,35.198,36.876999999999995,36.835,36.007
36.330999999999996,34.178000000000004,35.208,36.884,36.771,36.009
36.334,34.176,35.216,36.888000000000005,36.7,36.012
36.335,34.175,35.222,36.889,36.624,36.013000000000005
36.336,34.174,35.228,36.889,36.545,36.012
36.334,34.176,35.233000000000004,36.887,36.465,36.008
36.330999999999996,34.177,35.238,36.884,36.387,36.0
36.327,34.176,35.242,36.878,36.311,35.986999999999995
36.321,34.174,35.245,36.87,36.24,35.969
36.313,34.173,35.247,36.86,36.175,35.946
36.303000000000004,34.177,35.247,36.846,36.117,35.918
36.289,34.189,35.245,36.83,36.065,35.887
36.273,34.213,35.24,36.811,36.02,35.852
36.253,34.251,35.234,36.789,35.98,35.815
36.23,34.305,35.225,36.766,35.946999999999996,35.775999999999996
36.205999999999996,34.376,35.214,36.74,35.917,35.735
36.181,34.464,35.201,36.711999999999996,35.891999999999996,35.693000000000005
36.157,34.569,35.186,36.681999999999995,35.869,35.65
36.134,34.69,35.17,36.65,35.848,35.607
36.111999999999995,34.823,35.153,36.616,35.828,35.562
36.093,34.967,35.135999999999996,36.579,35.806999999999995,35.516999999999996
36.075,35.117,35.118,36.54,35.786,35.47
36.056999999999995,35.27,35.099000000000004,36.499,35.766999999999996,35.421
36.04,35.423,35.08,36.457,35.748000000000005,35.37
36.023,35.571999999999996,35.06,36.413000000000004,35.732,35.318000000000005
36.005,35.715,35.037,36.369,35.719,35.265
35.989000000000004,35.849000000000004,35.009,36.324,35.709,35.211
35.973,35.973,34.975,36.278,35.703,35.156
35.958,36.086,34.935,36.232,35.701,35.101
35.943000000000005,36.189,34.891,36.186,35.702,35.047
35.929,36.279,34.845,36.14,35.705,34.994
35.915,36.358000000000004,34.799,36.095,35.711,34.943000000000005
35.903,36.424,34.755,36.05,35.719,34.895
35.895,36.479,34.715,36.007,35.728,34.85
35.889,36.522,34.681999999999995,35.966,35.736,34.808
35.887,36.556,34.656,35.927,35.743,34.768
35.885999999999996,36.580999999999996,34.637,35.891,35.749,34.729
35.884,36.599000000000004,34.626,35.859,35.751,34.69
35.88,36.611,34.622,35.830999999999996,35.748000000000005,34.65
35.875,36.619,34.625,35.806999999999995,35.74,34.608000000000004
35.868,36.625,34.635,35.787,35.728,34.562
35.859,36.629,34.649,35.77,35.711999999999996,34.514
35.849000000000004,36.631,34.667,35.756,35.694,34.464
35.838,36.631,34.686,35.746,35.675,34.411
35.824,36.628,34.705,35.739000000000004,35.654,34.357
35.81,36.622,34.721,35.735,35.634,34.302
35.794000000000004,36.613,34.735,35.734,35.614000000000004,34.249
35.777,36.602,34.744,35.734,35.594,34.196999999999996
35.758,36.588,34.75,35.736,35.575,34.148
35.74,36.573,34.753,35.738,35.556,34.101
35.721,36.558,34.751999999999995,35.741,35.537,34.056
35.703,36.544000000000004,34.749,35.743,35.518,34.014
35.685,36.531,34.743,35.746,35.494,33.974000000000004
35.668,36.519,34.736999999999995,35.749,35.461,33.936
35.65,36.509,34.732,35.751,35.418,33.9
35.633,36.5,34.729,35.753,35.366,33.865
35.617,36.491,34.729,35.754,35.306999999999995,33.83
35.601,36.484,34.73,35.754,35.243,33.796
35.586,36.477,34.734,35.753,35.177,33.760999999999996
35.571999999999996,36.472,34.74,35.75,35.111,33.725
35.558,36.468,34.746,35.743,35.048,33.69
35.543,36.466,34.751999999999995,35.734,34.99,33.656
35.525999999999996,36.464,34.757,35.722,34.939,33.624
35.506,36.461,34.76,35.707,34.896,33.593
35.484,36.455,34.76,35.69,34.861,33.565
35.46,36.446,34.756,35.67,34.834,33.539
35.435,36.433,34.749,35.648,34.814,33.519
35.409,36.416,34.74,35.624,34.798,33.505
35.382,36.396,34.729,35.6,34.785,33.494
35.354,36.374,34.717,35.575,34.773,33.481
35.324,36.351,34.705,35.551,34.760999999999996,33.467
35.295,36.33,34.692,35.528,34.749,33.455
35.265,36.309,34.679,35.507,34.734,33.446
35.235,36.289,34.666,35.49,34.717,33.441
35.205999999999996,36.266999999999996,34.652,35.475,34.695,33.438
35.178000000000004,36.242,34.635999999999996,35.463,34.67,33.435
35.15,36.215,34.618,35.452,34.64,33.43
35.123000000000005,36.187,34.599000000000004,35.442,34.607,33.422
35.097,36.157,34.577,35.434,34.571,33.409
35.071999999999996,36.126,34.555,35.424,34.532,33.391999999999996
35.048,36.095,34.532,35.413000000000004,34.492,33.37
35.025,36.063,34.51,35.4,34.452,33.345
35.004,36.031,34.489000000000004,35.382,34.412,33.318000000000005
34.983000000000004,35.997,34.468,35.361,34.372,33.292
34.961999999999996,35.961999999999996,34.449,35.336,34.333,33.268
34.941,35.927,34.431999999999995,35.309,34.296,33.248000000000005
34.92,35.891,34.417,35.278,34.262,33.236
34.9,35.858000000000004,34.405,35.243,34.23,33.235
34.881,35.827,34.395,35.205999999999996,34.202,33.246
34.865,35.802,34.389,35.165,34.175,33.274
34.852,35.783,34.385,35.123000000000005,34.152,33.32
34.841,35.771,34.383,35.080999999999996,34.131,33.387
34.83,35.764,34.383,35.038000000000004,34.113,33.476
34.818000000000005,35.762,34.384,34.996,34.097,33.589
34.804,35.763000000000005,34.385999999999996,34.954,34.083,33.725
34.786,35.765,34.389,34.912,34.07,33.885
34.766,35.768,34.391999999999996,34.87,34.058,34.068000000000005
34.744,35.769,34.395,34.828,34.047,34.273
34.723,35.768,34.397,34.786,34.036,34.498000000000005
34.704,35.765,34.398,34.744,34.025,34.74
34.687,35.76,34.399,34.703,34.014,34.997
34.671,35.753,34.400999999999996,34.662,34.004,35.266999999999996
34.655,35.742,34.402,34.622,33.993,35.546
34.638000000000005,35.729,34.404,34.584,33.983000000000004,35.830999999999996
34.619,35.711999999999996,34.405,34.548,33.973,36.12
34.599000000000004,35.692,34.405,34.515,33.965,36.411
34.58,35.671,34.405,34.485,33.959,36.7
34.56,35.650999999999996,34.405,34.459,33.955,36.984
34.542,35.633,34.405,34.438,33.955,37.260999999999996
34.524,35.617,34.403,34.42,33.959,37.527
34.508,35.604,34.400999999999996,34.408,33.969,37.781
34.493,35.594,34.398,34.400999999999996,33.986,38.02
34.48,35.586,34.395,34.398,34.012,38.241
34.469,35.579,34.39,34.399,34.048,38.444
34.459,35.571,34.384,34.400999999999996,34.094,38.626
34.45,35.562,34.378,34.402,34.152,38.789
34.441,35.552,34.37,34.403,34.223,38.931999999999995
34.433,35.541,34.361,34.4,34.308,39.056
34.424,35.528,34.352,34.394,34.407,39.162
34.414,35.512,34.342,34.383,34.523,39.251999999999995
34.403,35.491,34.330999999999996,34.368,34.653,39.325
34.391,35.466,34.321999999999996,34.348,34.799,39.384
34.379,35.435,34.313,34.324,34.957,39.429
34.367,35.399,34.304,34.297,35.126999999999995,39.461
34.356,35.359,34.296,34.266999999999996,35.304,39.48
34.345,35.317,34.289,34.235,35.486999999999995,39.488
34.334,35.275,34.284,34.202,35.672,39.485
34.323,35.233000000000004,34.279,34.169000000000004,35.859,39.472
34.312,35.192,34.277,34.135999999999996,36.044000000000004,39.45
34.302,35.154,34.274,34.104,36.226,39.42
34.292,35.117,34.268,34.073,36.402,39.384
34.284,35.083,34.26,34.044000000000004,36.571,39.342
34.275999999999996,35.05,34.249,34.016999999999996,36.731,39.294000000000004
34.268,35.019,34.238,33.994,36.881,39.243
34.259,34.991,34.228,33.975,37.018,39.189
34.248000000000005,34.966,34.218,33.96,37.144,39.132
34.235,34.944,34.211,33.951,37.258,39.071999999999996
34.222,34.926,34.205999999999996,33.948,37.361,39.009
34.21,34.911,34.204,33.95,37.453,38.942
34.199,34.898,34.205999999999996,33.959,37.536,38.872
34.189,34.884,34.211,33.971,37.608000000000004,38.798
34.18,34.87,34.221,33.986,37.67,38.722
34.172,34.852,34.235,34.005,37.723,38.644
34.165,34.833,34.254,34.025999999999996,37.765,38.564
34.163000000000004,34.812,34.278,34.05,37.799,38.483000000000004
34.164,34.79,34.306,34.077,37.824,38.4
34.173,34.768,34.339,34.107,37.841,38.316
34.189,34.746,34.375,34.14,37.851,38.231
34.214,34.724000000000004,34.416,34.175,37.853,38.144
34.248000000000005,34.701,34.459,34.215,37.85,38.056
34.291,34.677,34.506,34.260999999999996,37.84,37.966
34.342,34.653,34.556,34.314,37.825,37.875
34.399,34.629,34.608000000000004,34.375,37.805,37.781
34.464,34.605,34.662,34.446,37.781,37.686
34.535,34.580999999999996,34.719,34.527,37.751999999999995,37.591
34.613,34.56,34.778,34.617,37.719,37.495
34.696,34.541,34.84,34.717,37.681999999999995,37.400999999999996
34.785,34.524,34.902,34.824,37.641999999999996,37.308
34.878,34.509,34.965,34.94,37.598,37.218
34.973,34.494,35.028,35.062,37.552,37.132
35.07,34.478,35.091,35.19,37.504,37.05
35.168,34.46,35.152,35.323,37.455,36.974000000000004
35.265,34.441,35.21,35.459,37.405,36.902
35.361999999999995,34.42,35.266,35.596,37.354,36.835
35.458,34.397,35.317,35.731,37.301,36.771
35.552,34.374,35.363,35.865,37.246,36.711
35.643,34.351,35.404,35.997,37.19,36.655
35.729,34.328,35.438,36.124,37.132,36.602
35.809,34.305,35.466,36.247,37.073,36.553000000000004
35.884,34.284,35.488,36.364000000000004,37.012,36.508
35.954,34.263000000000005,35.505,36.475,36.95,36.468
36.021,34.245,35.516999999999996,36.58,36.885,36.431999999999995
36.085,34.229,35.525,36.679,36.819,36.400999999999996
36.147,34.217,35.529,36.771,36.75,36.374
36.204,34.209,35.532,36.856,36.68,36.351
36.255,34.205,35.534,36.934,36.608000000000004,36.330999999999996
36.299,34.204,35.536,37.004,36.536,36.313
36.336,34.204,35.539,37.065,36.466,36.297
36.365,34.205999999999996,35.543,37.118,36.397,36.282
36.388000000000005,34.207,35.547,37.161,36.332,36.268
36.406,34.207,35.551,37.195,36.271,36.254
36.42,34.205999999999996,35.553000000000004,37.221,36.215,36.241
36.43,34.202,35.554,37.24,36.163000000000004,36.228
36.438,34.196999999999996,35.553000000000004,37.251999999999995,36.117,36.215
36.445,34.189,35.551,37.259,36.075,36.203
36.451,34.179,35.548,37.26,36.038000000000004,36.191
36.457,34.166,35.543,37.256,36.007,36.178000000000004
36.463,34.152,35.538000000000004,37.248000000000005,35.98,36.166
36.468,34.134,35.533,37.233000000000004,35.957,36.150999999999996
36.472,34.114000000000004,35.528,37.213,35.937,36.134
36.474000000000004,34.092,35.524,37.188,35.921,36.114000000000004
36.476,34.07,35.522,37.159,35.907,36.09
36.477,34.047,35.522,37.128,35.894,36.062
36.478,34.027,35.522,37.094,35.883,36.031
36.478,34.009,35.525,37.056999999999995,35.872,35.998000000000005
36.477,33.994,35.528,37.019,35.861999999999995,35.964
36.475,33.981,35.533,36.979,35.854,35.929
36.472,33.971,35.537,36.937,35.847,35.893
36.469,33.964,35.54,36.893,35.84,35.856
36.466,33.959,35.542,36.847,35.835,35.819
36.463,33.958,35.541,36.8,35.833,35.779
36.46,33.958,35.537,36.751999999999995,35.84,35.738
36.458,33.961,35.528,36.703,35.856,35.695
36.455,33.967,35.516999999999996,36.653,35.88,35.65
36.453,33.974000000000004,35.501999999999995,36.603,35.909,35.602
36.449,33.983000000000004,35.485,36.553000000000004,35.94,35.551
36.442,33.994,35.466,36.504,35.968,35.499
36.433,34.008,35.446,36.455,35.992,35.444
36.421,34.025,35.427,36.407,36.007,35.388000000000005
36.406,34.048,35.407,36.361,36.014,35.330999999999996
36.39,34.078,35.389,36.316,36.009,35.272
36.372,34.117,35.37,36.273,35.992,35.213
36.353,34.164,35.351,36.234,35.964,35.152
36.332,34.219,35.330999999999996,36.198,35.924,35.092
36.306999999999995,34.282,35.311,36.166,35.874,35.033
36.28,34.352,35.29,36.138000000000005,35.817,34.975
36.248000000000005,34.43,35.268,36.113,35.755,34.92
36.215,34.515,35.247,36.091,35.69,34.868
36.181999999999995,34.606,35.227,36.071999999999996,35.624,34.819
36.150999999999996,34.704,35.208,36.056999999999995,35.559,34.772
36.123000000000005,34.809,35.19,36.044000000000004,35.496,34.727
36.097,34.92,35.175,36.035,35.435,34.686
36.074,35.035,35.163000000000004,36.029,35.378,34.646
36.053000000000004,35.152,35.155,36.025,35.324,34.609
36.034,35.27,35.149,36.023,35.274,34.571999999999996
36.018,35.385,35.147,36.022,35.229,34.535
36.004,35.495,35.148,36.022,35.188,34.498000000000005
35.993,35.6,35.15,36.023,35.149,34.46
35.984,35.698,35.155,36.023,35.114000000000004,34.42
35.976,35.788000000000004,35.162,36.023,35.08,34.38
35.969,35.87,35.169000000000004,36.022,35.047,34.34
35.961,35.944,35.176,36.019,35.015,34.298
35.954,36.01,35.181999999999995,36.014,34.982,34.257
35.946999999999996,36.068000000000005,35.186,36.008,34.946999999999996,34.215
35.941,36.118,35.186,36.001,34.91,34.172
35.936,36.161,35.181999999999995,35.992,34.872,34.128
35.934,36.199,35.173,35.982,34.833,34.084
35.931999999999995,36.231,35.16,35.971,34.794000000000004,34.038000000000004
35.931999999999995,36.26,35.145,35.96,34.755,33.99
35.931,36.287,35.13,35.95,34.716,33.942
35.927,36.313,35.118,35.939,34.676,33.891999999999996
35.921,36.339,35.11,35.929,34.637,33.843
35.911,36.364000000000004,35.107,35.92,34.599000000000004,33.795
35.9,36.388000000000005,35.109,35.911,34.56,33.75
35.887,36.409,35.116,35.902,34.523,33.709
35.873000000000005,36.426,35.126999999999995,35.893,34.488,33.673
35.859,36.439,35.139,35.883,34.454,33.641
35.842,36.449,35.154,35.871,34.421,33.614000000000004
35.824,36.455999999999996,35.168,35.858000000000004,34.39,33.592
35.804,36.461999999999996,35.181,35.844,34.359,33.573
35.783,36.466,35.193000000000005,35.829,34.33,33.556999999999995
35.76,36.469,35.202,35.815,34.301,33.544000000000004
35.736,36.472,35.208,35.801,34.274,33.532
35.711999999999996,36.475,35.21,35.787,34.246,33.522
35.688,36.476,35.208,35.774,34.219,33.512
35.665,36.476,35.204,35.76,34.193000000000005,33.501
35.643,36.474000000000004,35.196999999999996,35.745,34.166,33.49
35.622,36.471,35.187,35.728,34.14,33.478
35.602,36.466,35.177,35.711,34.113,33.466
35.583,36.46,35.163000000000004,35.692,34.086999999999996,33.454
35.567,36.453,35.147,35.673,34.06,33.441
35.552,36.444,35.128,35.652,34.032,33.426
35.538000000000004,36.431999999999995,35.106,35.63,34.005,33.41
35.524,36.416,35.082,35.606,33.978,33.393
35.508,36.396,35.056,35.579,33.951,33.374
35.49,36.37,35.03,35.55,33.926,33.355
35.471,36.339,35.003,35.519,33.902,33.336
35.449,36.304,34.975,35.486,33.878,33.317
35.425,36.266,34.948,35.451,33.855,33.299
35.399,36.226,34.92,35.413000000000004,33.833,33.282
35.37,36.185,34.893,35.373000000000005,33.811,33.266
35.34,36.146,34.868,35.332,33.79,33.251999999999995
35.309,36.108000000000004,34.844,35.289,33.77,33.239000000000004
35.277,36.071999999999996,34.821999999999996,35.245,33.751,33.23
35.247,36.039,34.801,35.2,33.734,33.224000000000004
35.219,36.007,34.781,35.154,33.719,33.223
35.192,35.978,34.76,35.106,33.705999999999996,33.229
35.166,35.951,34.739000000000004,35.058,33.695,33.246
35.14,35.927,34.719,35.007,33.687,33.274
35.111999999999995,35.905,34.699,34.955999999999996,33.683,33.319
35.083,35.885,34.679,34.904,33.683,33.382
35.054,35.866,34.658,34.852,33.688,33.466
35.024,35.849000000000004,34.637,34.802,33.7,33.573
34.995,35.832,34.616,34.756,33.72,33.704
34.968,35.816,34.596,34.715,33.749,33.859
34.941,35.799,34.577,34.679,33.789,34.038000000000004
34.916,35.782,34.56,34.65,33.843,34.239000000000004
34.89,35.766,34.544000000000004,34.626,33.91,34.461999999999996
34.864000000000004,35.75,34.53,34.608000000000004,33.99,34.705
34.836999999999996,35.736,34.518,34.595,34.086,34.965
34.81,35.724000000000004,34.508,34.585,34.196999999999996,35.239000000000004
34.784,35.714,34.5,34.579,34.323,35.525
34.76,35.707,34.494,34.575,34.464,35.814
34.739000000000004,35.702,34.49,34.573,34.621,36.102
34.721,35.699,34.488,34.571999999999996,34.791,36.384
34.705999999999996,35.695,34.488,34.57,34.972,36.658
34.691,35.693000000000005,34.489000000000004,34.566,35.164,36.922
34.676,35.689,34.491,34.56,35.363,37.177
34.661,35.685,34.493,34.552,35.567,37.422
34.647,35.679,34.493,34.542,35.774,37.657
34.633,35.672,34.492,34.529,35.982,37.883
34.621,35.664,34.489000000000004,34.515,36.188,38.097
34.609,35.653,34.484,34.498000000000005,36.391,38.299
34.597,35.641,34.478,34.479,36.588,38.488
34.586,35.625,34.472,34.455999999999996,36.777,38.662
34.575,35.606,34.467,34.431999999999995,36.955999999999996,38.821
34.564,35.584,34.461,34.406,37.123000000000005,38.963
34.553000000000004,35.561,34.457,34.38,37.275999999999996,39.09
34.542,35.538000000000004,34.455,34.353,37.415,39.199
34.532,35.515,34.454,34.327,37.541,39.291
34.524,35.493,34.455,34.302,37.652,39.368
34.516999999999996,35.473,34.458,34.279,37.75,39.429
34.51,35.455,34.461,34.259,37.836,39.474000000000004
34.501999999999995,35.44,34.465,34.242,37.909,39.505
34.493,35.427,34.47,34.227,37.969,39.523
34.483000000000004,35.415,34.475,34.216,38.018,39.527
34.472,35.404,34.481,34.208,38.056,39.521
34.461999999999996,35.395,34.489000000000004,34.204,38.084,39.504
34.452,35.385,34.499,34.204,38.103,39.477
34.442,35.376,34.510999999999996,34.21,38.114000000000004,39.442
34.43,35.368,34.525999999999996,34.22,38.119,39.399
34.408,35.358000000000004,34.546,34.235,38.118,39.35
34.374,35.346,34.571,34.256,38.114000000000004,39.297
34.33,35.332,34.602,34.283,38.106,39.24
34.277,35.315,34.639,34.315,38.096,39.179
34.222,35.294000000000004,34.684,34.355,38.082,39.115
34.168,35.27,34.734,34.402,38.065,39.048
34.122,35.243,34.789,34.458,38.046,38.98
34.085,35.213,34.849000000000004,34.522,38.022,38.911
34.06,35.181,34.913000000000004,34.595,37.995,38.842
34.048,35.149,34.979,34.677,37.964,38.771
34.048,35.118,35.049,34.769,37.928000000000004,38.698
34.059,35.086999999999996,35.122,34.869,37.889,38.623000000000005
34.079,35.056999999999995,35.195,34.98,37.847,38.546
34.106,35.028,35.266999999999996,35.1,37.801,38.467
34.137,35.001,35.336999999999996,35.229,37.751999999999995,38.385999999999996
34.17,34.975,35.404,35.364000000000004,37.699,38.303000000000004
34.203,34.951,35.467,35.506,37.641999999999996,38.218
34.234,34.927,35.527,35.652,37.584,38.13
34.260999999999996,34.904,35.583,35.799,37.524,38.041
34.286,34.88,35.635999999999996,35.948,37.465,37.949
34.306999999999995,34.855,35.687,36.096,37.407,37.856
34.321999999999996,34.828,35.733000000000004,36.241,37.351,37.762
34.332,34.801,35.775,36.381,37.296,37.666
34.335,34.773,35.813,36.515,37.242,37.57
34.333,34.744,35.846,36.641,37.19,37.474000000000004
34.325,34.714,35.873000000000005,36.758,37.138000000000005,37.376999999999995
34.315,34.683,35.895,36.865,37.086999999999996,37.282
34.303000000000004,34.652,35.91,36.963,37.036,37.188
34.29,34.621,35.916,37.051,36.985,37.096
34.279,34.591,35.916,37.131,36.935,37.007
34.272,34.561,35.911,37.203,36.885999999999996,36.922
34.269,34.532,35.903,37.266999999999996,36.836,36.841
34.272,34.506,35.893,37.324,36.786,36.765
34.28,34.482,35.883,37.375,36.735,36.695
34.296,34.461,35.874,37.421,36.683,36.632
34.319,34.442,35.867,37.461,36.628,36.576
34.35,34.426,35.861999999999995,37.497,36.571,36.528
34.391,34.411,35.86,37.528,36.514,36.486999999999995
34.442,34.396,35.859,37.554,36.457,36.452
34.503,34.381,35.86,37.574,36.4,36.421
34.574,34.367,35.86,37.586999999999996,36.346,36.395
34.654,34.353,35.861,37.593,36.294000000000004,36.372
34.743,34.338,35.86,37.592,36.245,36.35
34.839,34.323,35.856,37.583,36.2,36.33
34.94,34.308,35.85,37.568000000000005,36.16,36.312
35.047,34.293,35.841,37.546,36.124,36.295
35.157,34.275999999999996,35.829,37.52,36.093,36.279
35.27,34.258,35.815,37.488,36.067,36.266
35.384,34.238,35.797,37.453,36.045,36.254
35.498000000000005,34.218,35.777,37.416,36.027,36.242
35.611999999999995,34.198,35.757,37.378,36.012,36.228
35.724000000000004,34.18,35.736999999999995,37.339,36.0,36.213
35.832,34.164,35.717,37.301,35.99,36.195
35.938,34.15,35.696999999999996,37.264,35.981,36.174
36.038000000000004,34.139,35.678000000000004,37.228,35.971,36.150999999999996
36.133,34.129,35.658,37.191,35.961,36.124
36.222,34.12,35.639,37.154,35.949,36.095
36.303000000000004,34.111,35.618,37.115,35.935,36.063
36.376,34.103,35.598,37.074,35.92,36.029
36.439,34.096,35.577,37.032,35.905,35.994
36.493,34.09,35.555,36.989000000000004,35.89,35.958
36.537,34.085,35.534,36.944,35.876,35.921
36.573,34.08,35.513000000000005,36.897,35.861,35.883
36.601,34.075,35.492,36.854,35.847,35.843
36.623000000000005,34.068000000000005,35.473,36.816,35.832,35.8
36.64,34.059,35.455999999999996,36.783,35.818000000000005,35.753
36.653,34.048,35.441,36.756,35.804,35.703
36.662,34.034,35.428000000000004,36.73,35.79,35.649
36.667,34.019,35.415,36.704,35.775999999999996,35.591
36.67,34.003,35.400999999999996,36.675,35.760999999999996,35.529
36.67,33.986999999999995,35.385999999999996,36.641999999999996,35.745,35.465
36.669000000000004,33.971,35.371,36.606,35.728,35.398
36.667,33.957,35.356,36.568000000000005,35.707,35.333
36.665,33.944,35.342,36.527,35.683,35.268
36.661,33.931,35.328,36.486,35.655,35.207
36.657,33.919000000000004,35.316,36.445,35.623000000000005,35.147
36.653,33.909,35.306,36.404,35.585,35.09
36.648,33.899,35.298,36.363,35.543,35.033
36.641999999999996,33.891999999999996,35.291,36.324,35.496,34.977
36.635999999999996,33.887,35.285,36.287,35.445,34.919000000000004
36.63,33.885,35.282,36.253,35.391,34.86
36.622,33.885,35.279,36.222,35.334,34.8
36.613,33.888000000000005,35.275999999999996,36.195,35.277,34.739000000000004
36.604,33.893,35.274,36.173,35.22,34.676
36.594,33.9,35.271,36.156,35.164,34.611999999999995
36.584,33.909,35.266999999999996,36.145,35.11,34.547
36.573,33.92,35.263000000000005,36.138000000000005,35.058,34.483000000000004
36.561,33.933,35.259,36.137,35.008,34.421
36.546,33.95,35.255,36.14,34.961,34.361
36.528,33.971,35.251,36.148,34.917,34.305
36.507,33.997,35.248000000000005,36.159,34.876,34.254
36.484,34.029,35.245,36.173,34.836,34.205999999999996
36.46,34.066,35.244,36.187,34.797,34.164
36.436,34.11,35.243,36.201,34.756,34.125
36.412,34.161,35.242,36.213,34.715,34.089
36.389,34.222,35.241,36.221,34.672,34.055
36.365,34.293,35.24,36.226,34.628,34.023
36.339,34.374,35.238,36.225,34.584,33.991
36.31,34.465,35.234,36.22,34.539,33.959
36.278,34.566,35.229,36.21,34.496,33.926
36.246,34.674,35.222,36.195,34.453,33.893
36.211999999999996,34.789,35.211999999999996,36.175,34.414,33.859
36.179,34.909,35.2,36.152,34.376999999999995,33.824
36.147,35.032,35.185,36.124,34.343,33.788000000000004
36.116,35.156,35.168,36.093,34.313,33.753
36.086,35.279,35.15,36.06,34.286,33.718
36.056999999999995,35.400999999999996,35.13,36.025999999999996,34.262,33.685
36.029,35.519,35.109,35.991,34.24,33.655
36.001,35.632,35.088,35.955999999999996,34.219,33.626999999999995
35.972,35.739000000000004,35.067,35.921,34.198,33.602
35.941,35.839,35.048,35.885999999999996,34.176,33.579
35.908,35.931999999999995,35.031,35.853,34.153,33.556999999999995
35.876,36.016,35.016999999999996,35.82,34.128,33.535
35.845,36.093,35.006,35.788000000000004,34.099000000000004,33.512
35.816,36.161,34.997,35.756,34.068000000000005,33.486999999999995
35.792,36.221,34.99,35.724000000000004,34.036,33.459
35.773,36.274,34.986,35.69,34.004,33.429
35.759,36.32,34.983000000000004,35.656,33.972,33.397
35.751,36.36,34.981,35.62,33.943000000000005,33.364000000000004
35.749,36.394,34.978,35.584,33.916,33.33
35.751,36.425,34.975,35.547,33.891999999999996,33.297
35.757,36.451,34.969,35.512,33.871,33.266
35.766999999999996,36.474000000000004,34.961999999999996,35.477,33.853,33.238
35.777,36.493,34.952,35.445,33.838,33.213
35.789,36.509,34.941,35.414,33.825,33.192
35.801,36.52,34.929,35.385999999999996,33.814,33.174
35.814,36.528,34.917,35.36,33.804,33.158
35.826,36.531,34.905,35.335,33.794000000000004,33.145
35.836,36.53,34.893,35.311,33.783,33.132
35.842,36.525,34.882,35.288000000000004,33.771,33.12
35.842,36.515,34.873000000000005,35.265,33.758,33.109
35.836,36.503,34.865,35.241,33.744,33.098
35.824,36.488,34.859,35.216,33.732,33.088
35.809,36.471,34.853,35.188,33.723,33.077
35.792,36.452,34.848,35.158,33.718,33.065
35.774,36.431999999999995,34.844,35.124,33.719,33.053000000000004
35.757,36.411,34.841,35.089,33.73,33.041
35.741,36.39,34.836999999999996,35.05,33.75,33.027
35.727,36.37,34.833,35.01,33.782,33.013000000000005
35.715,36.351,34.829,34.968,33.827,32.999
35.703,36.333,34.825,34.926,33.885,32.984
35.692,36.316,34.819,34.882,33.955999999999996,32.969
35.681,36.3,34.811,34.838,34.042,32.954
35.669000000000004,36.285,34.802,34.792,34.141999999999996,32.941
35.657,36.269,34.792,34.746,34.257,32.929
35.641999999999996,36.253,34.779,34.702,34.385,32.92
35.626999999999995,36.236,34.766,34.661,34.528,32.914
35.609,36.218,34.751,34.623000000000005,34.688,32.911
35.589,36.199,34.736,34.586999999999996,34.865,32.911
35.567,36.179,34.72,34.555,35.058,32.913000000000004
35.542,36.158,34.703,34.525,35.263000000000005,32.917
35.516,36.135999999999996,34.685,34.499,35.476,32.923
35.488,36.114000000000004,34.667,34.477,35.693000000000005,32.933
35.461,36.09,34.649,34.459,35.909,32.946999999999996
35.434,36.065,34.631,34.446,36.123000000000005,32.969
35.406,36.041,34.613,34.435,36.330999999999996,33.001
35.379,36.016,34.596,34.427,36.53,33.046
35.352,35.991,34.580999999999996,34.421,36.719,33.107
35.326,35.968,34.567,34.414,36.895,33.186
35.301,35.945,34.555,34.406,37.059,33.286
35.277,35.923,34.546,34.396,37.208,33.408
35.254,35.900999999999996,34.54,34.384,37.344,33.554
35.231,35.879,34.537,34.369,37.466,33.724000000000004
35.207,35.857,34.536,34.352,37.573,33.92
35.184,35.833,34.538000000000004,34.332,37.666,34.139
35.161,35.809,34.541,34.31,37.744,34.38
35.141,35.784,34.548,34.287,37.809,34.64
35.123000000000005,35.760999999999996,34.556999999999995,34.262,37.861,34.916
35.106,35.738,34.571,34.236,37.9,35.204
35.088,35.718,34.59,34.21,37.927,35.501
35.07,35.7,34.614000000000004,34.184,37.943000000000005,35.801
35.05,35.684,34.641999999999996,34.159,37.95,36.103
35.028,35.671,34.676,34.137,37.948,36.403
35.006,35.661,34.714,34.119,37.941,36.699
34.983000000000004,35.653,34.756,34.106,37.93,36.988
34.961,35.647,34.804,34.097,37.915,37.265
34.938,35.645,34.858000000000004,34.094,37.899,37.53
34.917,35.644,34.917,34.095,37.882,37.777
34.898,35.646,34.981,34.103,37.865,38.006
34.879,35.648,35.052,34.117,37.849000000000004,38.215
34.861999999999995,35.649,35.128,34.138000000000005,37.834,38.402
34.846,35.65,35.21,34.166,37.819,38.565
34.83,35.649,35.295,34.201,37.804,38.705
34.817,35.646,35.382,34.243,37.789,38.823
34.806,35.641,35.471,34.293,37.773,38.918
34.797,35.634,35.559,34.352,37.755,38.994
34.79,35.625,35.645,34.422,37.735,39.051
34.784,35.615,35.725,34.503,37.711,39.091
34.778,35.605,35.8,34.595,37.683,39.114000000000004
34.771,35.593,35.868,34.7,37.649,39.124
34.764,35.580999999999996,35.929,34.816,37.609,39.121
34.756,35.569,35.982,34.943000000000005,37.563,39.106
34.748000000000005,35.558,36.03,35.08,37.512,39.080999999999996
34.739000000000004,35.548,36.071,35.226,37.455,39.047
34.729,35.538000000000004,36.108000000000004,35.378,37.394,39.004
34.72,35.529,36.139,35.536,37.328,38.955
34.711,35.521,36.164,35.696999999999996,37.259,38.899
34.705999999999996,35.514,36.183,35.86,37.186,38.839
34.704,35.508,36.198,36.022,37.111,38.775
34.705999999999996,35.501,36.209,36.181999999999995,37.032,38.708
34.711,35.494,36.217,36.338,36.952,38.639
34.717,35.486,36.223,36.486999999999995,36.872,38.567
34.723,35.477,36.228,36.628,36.792,38.495
34.728,35.466,36.233000000000004,36.76,36.714,38.422
34.732,35.452,36.236,36.883,36.639,38.348
34.734,35.434,36.239000000000004,36.995,36.565,38.273
34.734,35.412,36.242,37.098,36.495,38.196
34.732,35.385,36.244,37.191,36.427,38.117
34.728,35.354,36.246,37.273,36.361999999999995,38.037
34.722,35.32,36.245,37.345,36.299,37.954
34.715,35.284,36.244,37.408,36.239000000000004,37.869
34.705999999999996,35.246,36.241,37.459,36.181999999999995,37.781
34.696999999999996,35.205999999999996,36.236999999999995,37.501,36.128,37.69
34.687,35.166,36.231,37.532,36.076,37.596
34.677,35.126,36.224000000000004,37.554,36.028,37.5
34.669000000000004,35.085,36.216,37.568000000000005,35.983000000000004,37.4
34.664,35.046,36.207,37.575,35.942,37.299
34.663000000000004,35.009,36.196999999999996,37.577,35.903,37.194
34.668,34.974000000000004,36.185,37.576,35.867,37.086
34.679,34.943000000000005,36.173,37.571,35.835,36.977
34.698,34.915,36.16,37.564,35.806,36.867
34.724000000000004,34.891,36.147,37.556,35.78,36.758
34.759,34.871,36.133,37.545,35.759,36.650999999999996
34.801,34.854,36.119,37.534,35.742,36.548
34.853,34.836999999999996,36.105,37.521,35.729,36.449
34.912,34.821,36.09,37.508,35.72,36.356
34.981,34.805,36.074,37.495,35.713,36.27
35.058,34.788000000000004,36.056,37.481,35.707,36.191
35.144,34.771,36.037,37.466,35.701,36.121
35.239000000000004,34.751999999999995,36.016999999999996,37.451,35.693000000000005,36.059
35.344,34.733000000000004,35.994,37.434,35.684,36.006
35.457,34.711999999999996,35.969,37.417,35.674,35.961
35.578,34.692,35.942,37.399,35.662,35.922
35.705,34.672,35.913000000000004,37.38,35.648,35.889
35.834,34.653,35.883,37.359,35.633,35.86
35.961,34.634,35.851,37.336999999999996,35.616,35.836
36.085,34.616,35.819,37.312,35.595,35.814
36.202,34.6,35.786,37.282,35.57,35.795
36.312,34.586,35.754,37.248000000000005,35.541,35.778
36.413000000000004,34.571999999999996,35.722,37.21,35.509,35.760999999999996
36.505,34.56,35.692,37.169000000000004,35.473,35.746
36.586,34.549,35.665,37.126,35.434,35.732
36.656,34.538000000000004,35.64,37.08,35.393,35.72
36.714,34.525999999999996,35.622,37.032,35.35,35.71
36.76,34.512,35.61,36.983000000000004,35.306,35.702
36.796,34.497,35.604,36.935,35.260999999999996,35.696999999999996
36.824,34.48,35.603,36.887,35.216,35.692
36.846,34.46,35.606,36.84,35.172,35.688
36.864000000000004,34.44,35.61,36.794000000000004,35.128,35.683
36.878,34.419000000000004,35.616,36.748000000000005,35.084,35.676
36.887,34.399,35.621,36.702,35.04,35.667
36.893,34.378,35.625,36.657,34.998000000000005,35.654
36.895,34.359,35.626999999999995,36.611,34.955,35.635999999999996
36.894,34.339,35.626,36.566,34.914,35.611999999999995
36.89,34.319,35.624,36.522,34.873000000000005,35.582
36.885999999999996,34.3,35.618,36.478,34.833,35.547
36.881,34.281,35.611,36.435,34.791,35.508
36.876,34.265,35.6,36.393,34.749,35.465
36.87,34.251999999999995,35.586999999999996,36.353,34.705,35.421
36.863,34.241,35.571,36.316,34.659,35.375
36.854,34.233000000000004,35.554,36.283,34.611,35.329
36.842,34.226,35.537,36.254,34.562,35.282
36.826,34.221,35.519,36.228,34.513000000000005,35.235
36.806999999999995,34.217,35.501999999999995,36.208,34.463,35.187
36.783,34.215,35.485,36.191,34.414,35.135999999999996
36.755,34.215,35.469,36.178000000000004,34.364000000000004,35.083
36.724000000000004,34.219,35.453,36.167,34.315,35.027
36.69,34.227,35.439,36.158,34.266,34.967
36.654,34.24,35.427,36.15,34.22,34.906
36.617,34.259,35.416,36.143,34.174,34.842
36.580999999999996,34.282,35.406,36.135,34.13,34.775999999999996
36.547,34.31,35.398,36.126999999999995,34.088,34.71
36.515,34.342,35.391,36.118,34.047,34.641999999999996
36.485,34.378,35.384,36.108000000000004,34.007,34.574
36.455999999999996,34.418,35.378,36.095,33.969,34.507
36.428000000000004,34.464,35.372,36.08,33.931,34.441
36.402,34.516,35.366,36.061,33.895,34.376999999999995
36.376,34.576,35.36,36.04,33.859,34.316
36.353,34.644,35.353,36.016,33.825,34.257
36.33,34.721,35.345,35.991,33.793,34.202
36.306999999999995,34.806,35.335,35.966,33.763000000000005,34.148
36.284,34.898,35.327,35.941,33.735,34.095
36.26,34.997,35.319,35.918,33.709,34.042
36.235,35.101,35.312,35.896,33.685,33.99
36.209,35.208,35.306999999999995,35.876,33.662,33.937
36.181,35.319,35.302,35.857,33.639,33.885
36.154,35.431999999999995,35.297,35.841,33.615,33.832
36.126,35.546,35.291,35.826,33.591,33.778
36.096,35.661,35.284,35.81,33.567,33.724000000000004
36.065,35.773,35.275,35.794000000000004,33.542,33.67
36.033,35.88,35.264,35.775,33.516999999999996,33.617
36.001,35.981,35.25,35.755,33.492,33.564
35.968,36.075,35.233000000000004,35.733000000000004,33.468,33.513000000000005
35.938,36.161,35.214,35.708,33.445,33.464
35.911,36.239000000000004,35.192,35.681,33.423,33.418
35.889,36.31,35.168,35.650999999999996,33.402,33.376
35.87,36.375,35.144,35.618,33.381,33.336
35.854,36.431999999999995,35.12,35.584,33.361,33.3
35.841,36.482,35.097,35.547,33.342,33.266
35.829,36.525,35.075,35.51,33.323,33.233000000000004
35.818000000000005,36.56,35.054,35.472,33.304,33.2
35.808,36.588,35.035,35.436,33.284,33.165
35.8,36.608000000000004,35.016,35.4,33.263000000000005,33.128
35.794000000000004,36.623000000000005,34.999,35.364000000000004,33.241,33.089
35.79,36.634,34.983000000000004,35.329,33.218,33.049
35.787,36.64,34.968,35.293,33.193000000000005,33.008
35.784,36.644,34.953,35.257,33.166,32.968
35.781,36.646,34.938,35.22,33.139,32.928000000000004
35.775,36.644,34.923,35.184,33.111999999999995,32.89
35.768,36.639,34.908,35.147,33.086,32.855
35.759,36.63,34.893,35.11,33.062,32.823
35.748000000000005,36.616,34.879,35.074,33.041,32.794000000000004
35.736999999999995,36.599000000000004,34.865,35.039,33.023,32.768
35.725,36.577,34.851,35.004,33.008,32.745
35.711,36.553000000000004,34.838,34.971,32.999,32.725
35.696,36.528,34.826,34.937,32.995,32.707
35.68,36.501999999999995,34.816,34.904,32.999,32.691
35.663000000000004,36.475,34.808,34.87,33.01,32.676
35.647,36.449,34.802,34.835,33.029,32.662
35.63,36.424,34.797,34.8,33.059,32.65
35.613,36.4,34.793,34.764,33.097,32.637
35.595,36.376,34.789,34.727,33.146,32.625
35.577,36.353,34.786,34.69,33.205999999999996,32.611
35.558,36.332,34.783,34.652,33.275999999999996,32.595
35.537,36.311,34.782,34.616,33.358000000000004,32.577
35.515,36.292,34.782,34.58,33.452,32.556999999999995
35.493,36.273,34.783,34.546,33.558,32.536
35.471,36.255,34.785,34.515,33.675,32.515
35.451,36.235,34.789,34.485,33.803000000000004,32.496
35.433,36.215,34.794000000000004,34.457,33.942,32.479
35.415,36.193000000000005,34.802,34.431,34.092,32.465
35.399,36.171,34.813,34.406,34.251,32.455
35.383,36.148,34.828,34.382,34.419000000000004,32.449
35.369,36.125,34.848,34.359,34.593,32.446
35.354,36.101,34.875,34.336,34.77,32.446
35.338,36.078,34.909,34.313,34.948,32.449
35.32,36.055,34.95,34.291,35.125,32.453
35.298,36.031,34.998000000000005,34.266999999999996,35.298,32.457
35.274,36.008,35.052,34.243,35.465,32.459
35.246,35.985,35.113,34.219,35.624,32.459
35.216,35.961999999999996,35.179,34.194,35.772,32.455999999999996
35.186,35.939,35.251,34.17,35.908,32.449
35.155,35.917,35.326,34.146,36.031,32.44
35.125,35.893,35.406,34.123000000000005,36.139,32.428000000000004
35.094,35.869,35.49,34.102,36.233000000000004,32.414
35.062,35.844,35.577,34.084,36.314,32.399
35.027,35.819,35.666,34.069,36.384,32.384
34.991,35.795,35.758,34.056,36.441,32.372
34.953,35.771,35.849000000000004,34.046,36.489000000000004,32.363
34.913000000000004,35.749,35.94,34.038000000000004,36.525999999999996,32.363
34.874,35.727,36.03,34.031,36.554,32.373000000000005
34.836999999999996,35.707,36.116,34.025,36.575,32.398
34.803000000000004,35.687,36.199,34.019,36.588,32.44
34.772,35.668,36.278,34.013000000000005,36.595,32.501
34.744,35.650999999999996,36.35,34.007,36.597,32.584
34.718,35.635999999999996,36.417,33.999,36.596,32.691
34.694,35.623000000000005,36.477,33.99,36.592,32.821
34.673,35.611999999999995,36.532,33.98,36.585,32.976
34.654,35.603,36.580999999999996,33.968,36.575,33.154
34.64,35.596,36.625,33.955999999999996,36.562,33.353
34.63,35.592,36.664,33.943000000000005,36.546,33.571
34.623000000000005,35.59,36.698,33.93,36.525999999999996,33.805
34.62,35.591,36.727,33.917,36.504,34.052
34.617,35.593,36.753,33.906,36.478,34.309
34.615,35.597,36.775999999999996,33.897,36.449,34.575
34.613,35.603,36.795,33.891999999999996,36.418,34.847
34.609,35.608000000000004,36.81,33.891999999999996,36.384,35.124
34.603,35.613,36.821,33.899,36.347,35.404
34.595,35.618,36.827,33.916,36.309,35.686
34.584,35.621,36.828,33.943000000000005,36.269,35.966
34.571,35.622,36.824,33.982,36.229,36.242
34.555,35.622,36.817,34.035,36.189,36.509
34.536,35.621,36.806,34.101,36.147,36.766
34.515,35.619,36.792,34.181999999999995,36.105,37.009
