Trial 1:0back,Trial 2:2back,Trial 3:3back,Trial 4:2back,Trial 5:3back,Trial 6:0back
34.751999999999995,34.658,34.621,36.934,33.728,34.224000000000004
34.721,34.79,34.634,36.885,33.728,34.226
34.688,34.941,34.649,36.84,33.73,34.223
34.656,35.11,34.662,36.796,33.734,34.216
34.623000000000005,35.294000000000004,34.675,36.756,33.74,34.205999999999996
34.592,35.492,34.687,36.72,33.748000000000005,34.191
34.562,35.7,34.696999999999996,36.69,33.757,34.173
34.533,35.915,34.703,36.664,33.769,34.152
34.506,36.133,34.705999999999996,36.644,33.782,34.13
34.48,36.35,34.703,36.63,33.798,34.107
34.455999999999996,36.562,34.696999999999996,36.62,33.816,34.084
34.435,36.766,34.685,36.614000000000004,33.836,34.06
34.415,36.957,34.671,36.611999999999995,33.86,34.036
34.397,37.133,34.653,36.611,33.885999999999996,34.013000000000005
34.38,37.291,34.634,36.611999999999995,33.914,33.988
34.364000000000004,37.431,34.613,36.613,33.944,33.964
34.348,37.551,34.592,36.614000000000004,33.974000000000004,33.939
34.330999999999996,37.65,34.571999999999996,36.614000000000004,34.005,33.915
34.312,37.731,34.554,36.611,34.035,33.889
34.292,37.793,34.54,36.607,34.064,33.863
34.27,37.838,34.528,36.6,34.091,33.836999999999996
34.247,37.867,34.521,36.591,34.115,33.81
34.223,37.882,34.518,36.582,34.137,33.784
34.199,37.885999999999996,34.516999999999996,36.571,34.155,33.756
34.175,37.881,34.519,36.559,34.17,33.727
34.152,37.869,34.524,36.547,34.181999999999995,33.696999999999996
34.129,37.853,34.53,36.534,34.191,33.665
34.106,37.832,34.536,36.518,34.196999999999996,33.63
34.082,37.81,34.543,36.498000000000005,34.202,33.594
34.059,37.787,34.549,36.475,34.205999999999996,33.555
34.035,37.764,34.553000000000004,36.448,34.208,33.514
34.012,37.742,34.555,36.414,34.207,33.47
33.99,37.722,34.555,36.375,34.205,33.424
33.968,37.705,34.552,36.33,34.199,33.376
33.948,37.69,34.546,36.28,34.191,33.327
33.929,37.676,34.537,36.225,34.181999999999995,33.278
33.91,37.664,34.525,36.166,34.171,33.228
33.893,37.653,34.51,36.103,34.16,33.18
33.876,37.643,34.492,36.04,34.150999999999996,33.133
33.86,37.633,34.471,35.976,34.146,33.088
33.845,37.625,34.448,35.912,34.145,33.046
33.83,37.618,34.424,35.85,34.150999999999996,33.006
33.817,37.611999999999995,34.400999999999996,35.789,34.166,32.969
33.805,37.606,34.378,35.731,34.192,32.933
33.794000000000004,37.599000000000004,34.357,35.674,34.229,32.9
33.785,37.592,34.336999999999996,35.619,34.281,32.867
33.775,37.585,34.319,35.566,34.347,32.835
33.764,37.577,34.302,35.513000000000005,34.431,32.804
33.751999999999995,37.569,34.289,35.461999999999996,34.531,32.771
33.739000000000004,37.561,34.277,35.412,34.649,32.738
33.726,37.553000000000004,34.268,35.361999999999995,34.784,32.705
33.714,37.544000000000004,34.262,35.314,34.935,32.671
33.702,37.534,34.258,35.268,35.102,32.639
33.692,37.521,34.257,35.223,35.281,32.607
33.681999999999995,37.505,34.26,35.181,35.471,32.576
33.672,37.486,34.266999999999996,35.141,35.668,32.548
33.661,37.463,34.28,35.102,35.867,32.522
33.65,37.434,34.3,35.065,36.064,32.499
33.638000000000005,37.4,34.329,35.029,36.256,32.478
33.626,37.361,34.37,34.995,36.438,32.459
33.616,37.318000000000005,34.423,34.961,36.605,32.442
33.609,37.27,34.49,34.928000000000004,36.755,32.426
33.604,37.22,34.574,34.894,36.885,32.41
33.603,37.167,34.675,34.86,36.994,32.393
33.606,37.111999999999995,34.794000000000004,34.826,37.082,32.375
33.611,37.056,34.931,34.792,37.147,32.354
33.617,37.0,35.085,34.757,37.192,32.332
33.625,36.944,35.253,34.722,37.219,32.306999999999995
33.632,36.889,35.434,34.688,37.228,32.28
33.64,36.836999999999996,35.622,34.653,37.222,32.251
33.648,36.787,35.815,34.619,37.202,32.22
33.655,36.738,36.008,34.584,37.172,32.189
33.662,36.692,36.198,34.552,37.132,32.158
33.67,36.648,36.379,34.521,37.086,32.129
33.678000000000004,36.606,36.548,34.492,37.034,32.102
33.687,36.567,36.702,34.464,36.979,32.078
33.696,36.533,36.836999999999996,34.438,36.922,32.058
33.705,36.501999999999995,36.953,34.413000000000004,36.865,32.043
33.715,36.477,37.048,34.387,36.808,32.033
33.725,36.455999999999996,37.121,34.361999999999995,36.751999999999995,32.029
33.736999999999995,36.439,37.172,34.335,36.698,32.031
33.749,36.427,37.202,34.309,36.648,32.04
33.762,36.417,37.211999999999996,34.282,36.6,32.056999999999995
33.773,36.411,37.205,34.254,36.555,32.083
33.783,36.407,37.183,34.225,36.514,32.121
33.79,36.407,37.149,34.195,36.477,32.174
33.795,36.407,37.106,34.164,36.444,32.244
33.796,36.408,37.056,34.133,36.415,32.336
33.795,36.409,37.001,34.103,36.39,32.455
33.793,36.408,36.944,34.073,36.369,32.605
33.788000000000004,36.404,36.885,34.045,36.352,32.791
33.782,36.396,36.824,34.018,36.339,33.018
33.775,36.384,36.763000000000005,33.993,36.329,33.288000000000004
33.766,36.367,36.702,33.968,36.321999999999996,33.603
33.756,36.345,36.644,33.943000000000005,36.316,33.963
33.743,36.318000000000005,36.589,33.919000000000004,36.312,34.367
33.728,36.288000000000004,36.538000000000004,33.895,36.309,34.811
33.711999999999996,36.257,36.494,33.871,36.306999999999995,35.289
33.695,36.224000000000004,36.455999999999996,33.848,36.306,35.796
33.676,36.189,36.425,33.826,36.304,36.325
33.657,36.154,36.402,33.805,36.3,36.865
33.635999999999996,36.117,36.387,33.784,36.295,37.409
33.616,36.079,36.379,33.765,36.286,37.948
33.597,36.04,36.376,33.748000000000005,36.274,38.473
33.58,36.0,36.379,33.733000000000004,36.258,38.977
33.567,35.959,36.387,33.72,36.239000000000004,39.453
33.558,35.919000000000004,36.397,33.711,36.216,39.893
33.556,35.878,36.407,33.705999999999996,36.189,40.293
33.562,35.836,36.413000000000004,33.708,36.16,40.65
33.578,35.795,36.409,33.717,36.128,40.959
33.605,35.753,36.395,33.738,36.094,41.22
33.646,35.713,36.374,33.774,36.059,41.431999999999995
33.7,35.675,36.347,33.826,36.023,41.595
33.768,35.638000000000005,36.316,33.898,35.986999999999995,41.711000000000006
33.849000000000004,35.603,36.282,33.993,35.952,41.783
33.946,35.57,36.247,34.114000000000004,35.918,41.81399999999999
34.056,35.539,36.21,34.260999999999996,35.885,41.809
34.181,35.509,36.174,34.434,35.854,41.771
34.319,35.481,36.139,34.634,35.823,41.706
34.47,35.453,36.104,34.858000000000004,35.794000000000004,41.618
34.632,35.427,36.07,35.104,35.766999999999996,41.511
34.803000000000004,35.4,36.037,35.367,35.741,41.39
34.98,35.372,36.001999999999995,35.644,35.718,41.25899999999999
35.159,35.345,35.967,35.93,35.696999999999996,41.122
35.339,35.317,35.929,36.22,35.68,40.982
35.515,35.289,35.889,36.507,35.665,40.843
35.686,35.260999999999996,35.846,36.788000000000004,35.652,40.707
35.848,35.232,35.798,37.056999999999995,35.641,40.577
36.0,35.203,35.747,37.31,35.63,40.453
36.141,35.173,35.692,37.542,35.621,40.338
36.269,35.14,35.635,37.753,35.611,40.229
36.382,35.107,35.576,37.939,35.602,40.126999999999995
36.48,35.071999999999996,35.516,38.099000000000004,35.593,40.029
36.561,35.037,35.457,38.235,35.583,39.935
36.625,35.001,35.400999999999996,38.345,35.571999999999996,39.845
36.673,34.966,35.349000000000004,38.431,35.56,39.757
36.703,34.931,35.301,38.492,35.546,39.671
36.718,34.897,35.259,38.532,35.532,39.586999999999996
36.719,34.864000000000004,35.223,38.552,35.516999999999996,39.506
36.708,34.832,35.193000000000005,38.556,35.501,39.427
36.687,34.803000000000004,35.168,38.547,35.486,39.349000000000004
36.658,34.777,35.148,38.527,35.471,39.271
36.624,34.755,35.133,38.499,35.458,39.192
36.588,34.738,35.122,38.465,35.452,39.111
36.55,34.724000000000004,35.113,38.425,35.452,39.028
36.514,34.714,35.108000000000004,38.382,35.455999999999996,38.943000000000005
36.482,34.705999999999996,35.105,38.339,35.463,38.854
36.455999999999996,34.698,35.105,38.298,35.472,38.763000000000005
36.438,34.69,35.106,38.262,35.481,38.67
36.427,34.68,35.108000000000004,38.23,35.486,38.575
36.425,34.667,35.11,38.202,35.486999999999995,38.48
36.431,34.65,35.111999999999995,38.177,35.481,38.384
36.444,34.63,35.113,38.155,35.468,38.288000000000004
36.464,34.607,35.111999999999995,38.135,35.446999999999996,38.192
36.489000000000004,34.582,35.107,38.117,35.419000000000004,38.096
36.516999999999996,34.555,35.099000000000004,38.1,35.385,37.999
36.548,34.527,35.084,38.083,35.347,37.903
36.58,34.497,35.064,38.067,35.305,37.809
36.613,34.467,35.038000000000004,38.05,35.263000000000005,37.718
36.645,34.438,35.006,38.032,35.22,37.631
36.678000000000004,34.409,34.968,38.013000000000005,35.178000000000004,37.55
36.708,34.384,34.926,37.994,35.138000000000005,37.477
36.736,34.361999999999995,34.88,37.972,35.1,37.413000000000004
36.760999999999996,34.342,34.83,37.949,35.066,37.357
36.781,34.325,34.779,37.924,35.035,37.311
36.799,34.308,34.728,37.895,35.01,37.273
36.813,34.293,34.678000000000004,37.863,34.989000000000004,37.243
36.824,34.279,34.631,37.828,34.973,37.221
36.833,34.266999999999996,34.586,37.788000000000004,34.96,37.205999999999996
36.839,34.256,34.545,37.745,34.951,37.198
36.841,34.248000000000005,34.507,37.696999999999996,34.943000000000005,37.196999999999996
36.841,34.242,34.472,37.649,34.937,37.2
36.838,34.238,34.44,37.604,34.931999999999995,37.209
36.83,34.236999999999995,34.409,37.565,34.928000000000004,37.222
36.819,34.24,34.381,37.529,34.923,37.239000000000004
36.803000000000004,34.249,34.354,37.496,34.918,37.259
36.784,34.268,34.329,37.46,34.912,37.28
36.762,34.298,34.306,37.42,34.905,37.3
36.736999999999995,34.342,34.285,37.373000000000005,34.897,37.319
36.711,34.403,34.266999999999996,37.316,34.888000000000005,37.334
36.681999999999995,34.482,34.249,37.25,34.878,37.345
36.652,34.580999999999996,34.234,37.173,34.868,37.35
36.619,34.701,34.22,37.086999999999996,34.857,37.349000000000004
36.585,34.841,34.209,36.993,34.846,37.341
36.549,35.001,34.2,36.893,34.834,37.325
36.512,35.178000000000004,34.194,36.789,34.823,37.302
36.475,35.37,34.19,36.681999999999995,34.811,37.271
36.439,35.571999999999996,34.19,36.576,34.797,37.232
36.404,35.782,34.192,36.471,34.781,37.186
36.371,35.997,34.198,36.37,34.763000000000005,37.132
36.34,36.211999999999996,34.205999999999996,36.275,34.743,37.073
36.312,36.422,34.217,36.187,34.722,37.009
36.286,36.625,34.229,36.108000000000004,34.699,36.939
36.263000000000005,36.816,34.245,36.038000000000004,34.675,36.865
36.24,36.993,34.263000000000005,35.979,34.648,36.787
36.22,37.155,34.284,35.929,34.619,36.705
36.2,37.299,34.308,35.889,34.586,36.62
36.181999999999995,37.425,34.335,35.857,34.55,36.531
36.165,37.533,34.365,35.833,34.510999999999996,36.441
36.148,37.622,34.398,35.815,34.47,36.35
36.132,37.693000000000005,34.434,35.804,34.428000000000004,36.257
36.114000000000004,37.746,34.472,35.796,34.384,36.164
36.096,37.78,34.512,35.791,34.339,36.07
36.075,37.798,34.554,35.788000000000004,34.294000000000004,35.977
36.052,37.801,34.596,35.786,34.25,35.884
36.025999999999996,37.789,34.64,35.784,34.205,35.792
35.996,37.765,34.683,35.782,34.162,35.699
35.964,37.732,34.725,35.779,34.121,35.605
35.929,37.692,34.766,35.774,34.083,35.51
35.891,37.647,34.805,35.765,34.048,35.414
35.852,37.6,34.841,35.753,34.016999999999996,35.317
35.81,37.554,34.875,35.736999999999995,33.991,35.218
35.766,37.51,34.906,35.716,33.968,35.12
35.721,37.469,34.933,35.69,33.95,35.023
35.676,37.434,34.955999999999996,35.659,33.934,34.926
35.63,37.403,34.975,35.623000000000005,33.92,34.832
35.586,37.379,34.991,35.582,33.907,34.741
35.544000000000004,37.359,35.005,35.536,33.896,34.654
35.503,37.346,35.016,35.485,33.885,34.571
35.464,37.336999999999996,35.025999999999996,35.431,33.874,34.493
35.427,37.334,35.035,35.374,33.861999999999995,34.419000000000004
35.391,37.334,35.042,35.315,33.851,34.351
35.357,37.336,35.05,35.257,33.84,34.287
35.323,37.338,35.056,35.199,33.828,34.228
35.29,37.341,35.062,35.143,33.815,34.171
35.259,37.341,35.068000000000005,35.089,33.802,34.116
35.229,37.34,35.071999999999996,35.038000000000004,33.789,34.063
35.201,37.335,35.074,34.99,33.775,34.01
35.174,37.327,35.075,34.946999999999996,33.760999999999996,33.955999999999996
35.148,37.316,35.075,34.909,33.746,33.900999999999996
35.123000000000005,37.3,35.073,34.876,33.731,33.844
35.096,37.278,35.068000000000005,34.848,33.716,33.785
35.067,37.251,35.061,34.824,33.7,33.725
35.037,37.22,35.053000000000004,34.803000000000004,33.683,33.664
35.005,37.184,35.045,34.783,33.666,33.603
34.973,37.144,35.035,34.764,33.648,33.544000000000004
34.941,37.1,35.027,34.743,33.632,33.486
34.91,37.053000000000004,35.018,34.721,33.617,33.431999999999995
34.881,37.003,35.01,34.696,33.605,33.381
34.855,36.952,35.005,34.668,33.596,33.334
34.83,36.899,35.004,34.635999999999996,33.588,33.29
34.808,36.846,35.009,34.599000000000004,33.582,33.25
34.787,36.792,35.021,34.558,33.576,33.213
34.769,36.736999999999995,35.042,34.514,33.57,33.18
34.751999999999995,36.681999999999995,35.073,34.467,33.564,33.149
34.735,36.626999999999995,35.115,34.417,33.556999999999995,33.12
34.719,36.571999999999996,35.17,34.366,33.55,33.093
34.703,36.518,35.24,34.313,33.542,33.067
34.686,36.465,35.327,34.259,33.533,33.041
34.667,36.414,35.431,34.204,33.525999999999996,33.016999999999996
34.646,36.366,35.553000000000004,34.149,33.519,32.993
34.623000000000005,36.321999999999996,35.695,34.096,33.514,32.97
34.597,36.282,35.857,34.045,33.509,32.946999999999996
34.569,36.247,36.036,33.996,33.507,32.923
34.54,36.216,36.233000000000004,33.95,33.505,32.9
34.510999999999996,36.191,36.444,33.906,33.506,32.876
34.481,36.169000000000004,36.666,33.865,33.509,32.852
34.453,36.152,36.895,33.826,33.514,32.827
34.424,36.137,37.129,33.79,33.522,32.802
34.397,36.124,37.363,33.756,33.535,32.775999999999996
34.371,36.113,37.595,33.725,33.552,32.749
34.345,36.103,37.819,33.696,33.577,32.722
34.32,36.092,38.034,33.669000000000004,33.611999999999995,32.694
34.297,36.082,38.235,33.644,33.66,32.667
34.274,36.069,38.42,33.621,33.723,32.641
34.251999999999995,36.055,38.586999999999996,33.599000000000004,33.806,32.617
34.23,36.039,38.733000000000004,33.578,33.911,32.594
34.207,36.022,38.857,33.558,34.038000000000004,32.574
34.183,36.003,38.957,33.538000000000004,34.189,32.555
34.156,35.983000000000004,39.033,33.516999999999996,34.363,32.538000000000004
34.126999999999995,35.961999999999996,39.085,33.495,34.556,32.523
34.094,35.941,39.116,33.473,34.766999999999996,32.506
34.059,35.922,39.125,33.451,34.99,32.486999999999995
34.023,35.904,39.117,33.429,35.223,32.466
33.986,35.885999999999996,39.092,33.408,35.461,32.44
33.95,35.868,39.055,33.389,35.7,32.411
33.915,35.851,39.006,33.372,35.935,32.38
33.882,35.834,38.949,33.357,36.164,32.346
33.852,35.817,38.885,33.342,36.381,32.31
33.825,35.799,38.816,33.329,36.585,32.273
33.802,35.781,38.743,33.317,36.773,32.236
33.782,35.762,38.669000000000004,33.306999999999995,36.942,32.2
33.766,35.742,38.593,33.298,37.092,32.166
33.754,35.72,38.515,33.29,37.222,32.133
33.746,35.696999999999996,38.437,33.282,37.329,32.104
33.74,35.672,38.356,33.275,37.415,32.078
33.736999999999995,35.645,38.274,33.269,37.478,32.055
33.735,35.616,38.188,33.262,37.521,32.036
33.734,35.586,38.102,33.257,37.543,32.02
33.733000000000004,35.555,38.015,33.251999999999995,37.548,32.007
33.732,35.522,37.929,33.247,37.539,31.995
33.731,35.488,37.843,33.243,37.516999999999996,31.983
33.731,35.454,37.759,33.241,37.486999999999995,31.971
33.734,35.42,37.677,33.24,37.45,31.958000000000002
33.739000000000004,35.385,37.598,33.241,37.409,31.941999999999997
33.748000000000005,35.35,37.523,33.246,37.365,31.923000000000002
33.760999999999996,35.315,37.452,33.254,37.32,31.899
33.777,35.279,37.384,33.266999999999996,37.277,31.871
33.797,35.245,37.32,33.286,37.236,31.839000000000002
33.819,35.211,37.259,33.312,37.196999999999996,31.804000000000002
33.843,35.178000000000004,37.199,33.348,37.161,31.767
33.87,35.146,37.141,33.397,37.128,31.729
33.897,35.115,37.083,33.463,37.098,31.691
33.925,35.086,37.025999999999996,33.547,37.071,31.656
33.954,35.058,36.969,33.650999999999996,37.047,31.624000000000002
33.982,35.033,36.911,33.777,37.028,31.595
34.010999999999996,35.01,36.852,33.923,37.013000000000005,31.57
34.038000000000004,34.989000000000004,36.791,34.09,37.003,31.55
34.065,34.97,36.729,34.277,36.997,31.533
34.09,34.952,36.667,34.484,36.995,31.52
34.114000000000004,34.934,36.603,34.71,36.997,31.509
34.135,34.915,36.539,34.95,37.001,31.500999999999998
34.155,34.897,36.475,35.204,37.007,31.493000000000002
34.173,34.878,36.409,35.466,37.013000000000005,31.485
34.188,34.86,36.343,35.734,37.018,31.476
34.201,34.841,36.274,36.003,37.021,31.465
34.211,34.82,36.204,36.268,37.022,31.453000000000003
34.217,34.798,36.134,36.524,37.02,31.436999999999998
34.218,34.775,36.064,36.768,37.013000000000005,31.419
34.216,34.751,35.995,36.996,37.001999999999995,31.399
34.21,34.726,35.927,37.204,36.986999999999995,31.377
34.2,34.7,35.861,37.391,36.968,31.353
34.188,34.674,35.796,37.554,36.946,31.328000000000003
34.174,34.647,35.735,37.693000000000005,36.919000000000004,31.304000000000002
34.158,34.622,35.678000000000004,37.808,36.89,31.281999999999996
34.141999999999996,34.597,35.625,37.900999999999996,36.859,31.261999999999997
34.126,34.574,35.576,37.97,36.824,31.243000000000002
34.111999999999995,34.553000000000004,35.533,38.019,36.788000000000004,31.226999999999997
34.101,34.534,35.494,38.049,36.75,31.214000000000002
34.096,34.515,35.461,38.061,36.711,31.203000000000003
34.099000000000004,34.498000000000005,35.433,38.059,36.67,31.195
34.113,34.48,35.409,38.044000000000004,36.628,31.19
34.14,34.463,35.389,38.019,36.586,31.186
34.181999999999995,34.445,35.372,37.986999999999995,36.544000000000004,31.184
34.241,34.425,35.358000000000004,37.949,36.501999999999995,31.180999999999997
34.318000000000005,34.404,35.345,37.908,36.461,31.179000000000002
34.412,34.382,35.334,37.864000000000004,36.421,31.175
34.524,34.356,35.325,37.821,36.385,31.169
34.650999999999996,34.329,35.316,37.778,36.351,31.162
34.793,34.3,35.306999999999995,37.736999999999995,36.321,31.153000000000002
34.946,34.27,35.299,37.698,36.295,31.143
35.108000000000004,34.24,35.291,37.662,36.273,31.133000000000003
35.275999999999996,34.211,35.284,37.628,36.255,31.122
35.446999999999996,34.181999999999995,35.277,37.596,36.24,31.113000000000003
35.617,34.154,35.271,37.567,36.228,31.109
35.782,34.128,35.264,37.54,36.219,31.111
35.939,34.103,35.257,37.516,36.211999999999996,31.124000000000002
36.085,34.082,35.246,37.494,36.205999999999996,31.154
36.216,34.065,35.233000000000004,37.474000000000004,36.202,31.204
36.332,34.053000000000004,35.215,37.455999999999996,36.199,31.281999999999996
36.431,34.045,35.191,37.438,36.196,31.392
36.510999999999996,34.04,35.162,37.421,36.192,31.538
36.574,34.037,35.128,37.403,36.189,31.725
36.618,34.035,35.089,37.383,36.184,31.956
36.646,34.031,35.046,37.361,36.178000000000004,32.233000000000004
36.657,34.025999999999996,35.0,37.338,36.172,32.554
36.654,34.019,34.95,37.312,36.163000000000004,32.92
36.639,34.01,34.897,37.284,36.153,33.326
36.614000000000004,33.999,34.844,37.254,36.141999999999996,33.769
36.58,33.988,34.791,37.22,36.126999999999995,34.244
36.541,33.979,34.738,37.184,36.11,34.744
36.498000000000005,33.975,34.685,37.145,36.091,35.260999999999996
36.453,33.979,34.632,37.104,36.07,35.789
36.407,33.995,34.580999999999996,37.06,36.047,36.32
36.36,34.025,34.53,37.014,36.022,36.847
36.314,34.071999999999996,34.482,36.965,35.998000000000005,37.361999999999995
36.269,34.14,34.435,36.913000000000004,35.972,37.857
36.224000000000004,34.228,34.391,36.859,35.946,38.327
36.183,34.338,34.35,36.803000000000004,35.918,38.764
36.144,34.47,34.311,36.746,35.888000000000005,39.164
36.11,34.623000000000005,34.275,36.69,35.857,39.523
36.080999999999996,34.795,34.242,36.634,35.825,39.839
36.056999999999995,34.983000000000004,34.21,36.58,35.792,40.11
36.037,35.183,34.178000000000004,36.528,35.757,40.336
36.022,35.391999999999996,34.147,36.478,35.722,40.519
36.009,35.606,34.114000000000004,36.431999999999995,35.687,40.66
35.999,35.82,34.082,36.388000000000005,35.65,40.762
35.989000000000004,36.03,34.05,36.346,35.613,40.825
35.98,36.232,34.016999999999996,36.306,35.575,40.855
35.97,36.423,33.984,36.269,35.538000000000004,40.853
35.96,36.599000000000004,33.951,36.233000000000004,35.501,40.824
35.95,36.758,33.918,36.199,35.465,40.769
35.939,36.898,33.884,36.167,35.43,40.695
35.927,37.016999999999996,33.85,36.138000000000005,35.396,40.604
35.914,37.116,33.814,36.111,35.363,40.501999999999995
35.897,37.195,33.775999999999996,36.088,35.33,40.391
35.878,37.254,33.736999999999995,36.068000000000005,35.298,40.273
35.855,37.295,33.695,36.052,35.265,40.150999999999996
35.827,37.318000000000005,33.652,36.039,35.233000000000004,40.028
35.795,37.327,33.609,36.03,35.201,39.904
35.76,37.323,33.566,36.023,35.169000000000004,39.781
35.722,37.31,33.523,36.019,35.139,39.66
35.681999999999995,37.289,33.481,36.016999999999996,35.11,39.542
35.641999999999996,37.262,33.44,36.015,35.084,39.428000000000004
35.6,37.23,33.400999999999996,36.013000000000005,35.056999999999995,39.319
35.558,37.196,33.363,36.008,35.025999999999996,39.215
35.516,37.161,33.327,36.0,34.99,39.118
35.473,37.126,33.292,35.99,34.948,39.027
35.43,37.093,33.26,35.978,34.900999999999996,38.941
35.385999999999996,37.063,33.23,35.965,34.854,38.86
35.343,37.036,33.203,35.951,34.808,38.782
35.301,37.010999999999996,33.179,35.937,34.766,38.707
35.26,36.988,33.159,35.923,34.73,38.631
35.22,36.967,33.143,35.907,34.702,38.556
35.181999999999995,36.949,33.128,35.891,34.681999999999995,38.478
35.147,36.933,33.117,35.874,34.67,38.398
35.115,36.92,33.107,35.855,34.667,38.314
35.086,36.909,33.098,35.834,34.673,38.226
35.06,36.9,33.089,35.812,34.687,38.135
35.039,36.89,33.082,35.788000000000004,34.708,38.04
35.023,36.88,33.074,35.760999999999996,34.734,37.942
35.009,36.87,33.068000000000005,35.731,34.763000000000005,37.842
35.0,36.859,33.062,35.699,34.792,37.741
34.992,36.847,33.058,35.665,34.821,37.64
34.985,36.835,33.055,35.628,34.848,37.541
34.979,36.821999999999996,33.054,35.59,34.871,37.444
34.972,36.809,33.054,35.55,34.891,37.353
34.964,36.795,33.056,35.508,34.905,37.266999999999996
34.955999999999996,36.778,33.06,35.465,34.915,37.19
34.946,36.76,33.066,35.42,34.92,37.121
34.937,36.738,33.073,35.375,34.921,37.062
34.928000000000004,36.713,33.080999999999996,35.329,34.918,37.015
34.919000000000004,36.683,33.091,35.283,34.912,36.978
34.912,36.649,33.102,35.236999999999995,34.904,36.952
34.905,36.609,33.116,35.192,34.894,36.936
34.898,36.564,33.132,35.147,34.885,36.93
34.89,36.516,33.15,35.102,34.875,36.931999999999995
34.883,36.465,33.172,35.056999999999995,34.866,36.941
34.876,36.412,33.196999999999996,35.013000000000005,34.858000000000004,36.955999999999996
34.869,36.359,33.226,34.97,34.85,36.975
34.861999999999995,36.308,33.258,34.927,34.844,36.999
34.855,36.26,33.294000000000004,34.885,34.838,37.025
34.849000000000004,36.214,33.333,34.844,34.832,37.053000000000004
34.842,36.172,33.376,34.802,34.826,37.080999999999996
34.835,36.134,33.424,34.76,34.82,37.111
34.827,36.1,33.477,34.718,34.814,37.14
34.819,36.071,33.535,34.676,34.809,37.169000000000004
34.81,36.046,33.601,34.634,34.804,37.198
34.8,36.025999999999996,33.675,34.592,34.799,37.226
34.791,36.009,33.759,34.549,34.796,37.251999999999995
34.782,35.994,33.854,34.507,34.792,37.275999999999996
34.774,35.983000000000004,33.961999999999996,34.464,34.79,37.296
34.766999999999996,35.973,34.083,34.421,34.787,37.313
34.76,35.965,34.217,34.378,34.785,37.324
34.754,35.955999999999996,34.365,34.336,34.781,37.332
34.749,35.946,34.525,34.295,34.777,37.335
34.745,35.936,34.694,34.255,34.77,37.333
34.742,35.925,34.872,34.215,34.762,37.324
34.739000000000004,35.913000000000004,35.056,34.176,34.751,37.31
34.736999999999995,35.9,35.242,34.138000000000005,34.738,37.289
34.735,35.885999999999996,35.428000000000004,34.101,34.724000000000004,37.262
34.733000000000004,35.873000000000005,35.611,34.065,34.709,37.227
34.728,35.859,35.789,34.03,34.692,37.184
34.721,35.845,35.958,33.995,34.676,37.133
34.711,35.833,36.115,33.961,34.659,37.075
34.699,35.821999999999996,36.258,33.927,34.641999999999996,37.01
34.685,35.814,36.385,33.893,34.624,36.938
34.671,35.808,36.496,33.86,34.606,36.859
34.656,35.804,36.59,33.829,34.586999999999996,36.775999999999996
34.643,35.8,36.666,33.798,34.566,36.691
34.631,35.796,36.725,33.77,34.544000000000004,36.604
34.622,35.79,36.766,33.744,34.521,36.518
34.616,35.78,36.79,33.719,34.498000000000005,36.433
34.611999999999995,35.766999999999996,36.799,33.696,34.475,36.351
34.609,35.751,36.793,33.673,34.452,36.271
34.608000000000004,35.73,36.775,33.65,34.431,36.193000000000005
34.607,35.704,36.748000000000005,33.628,34.41,36.118
34.606,35.675,36.713,33.606,34.391999999999996,36.044000000000004
34.606,35.641999999999996,36.674,33.584,34.375,35.97
34.605,35.606,36.633,33.561,34.361999999999995,35.898
34.603,35.568000000000005,36.592,33.537,34.352,35.825
34.6,35.529,36.553000000000004,33.512,34.346,35.751
34.596,35.489000000000004,36.515,33.485,34.345,35.678000000000004
34.59,35.45,36.48,33.458,34.35,35.605
34.582,35.411,36.448,33.43,34.363,35.533
34.573,35.373000000000005,36.419000000000004,33.402,34.387,35.461999999999996
34.562,35.338,36.393,33.373000000000005,34.423,35.394
34.551,35.306,36.371,33.345,34.474000000000004,35.328
34.54,35.278,36.354,33.317,34.543,35.265
34.529,35.251999999999995,36.34,33.291,34.63,35.204
34.518,35.229,36.330999999999996,33.266999999999996,34.735,35.145
34.507,35.207,36.327,33.244,34.859,35.089
34.496,35.187,36.326,33.223,35.001999999999995,35.035
34.484,35.168,36.329,33.203,35.16,34.982
34.472,35.149,36.334,33.183,35.332,34.93
34.46,35.128,36.34,33.164,35.514,34.88
34.448,35.106,36.348,33.145,35.702,34.832
34.438,35.08,36.357,33.125,35.891999999999996,34.787
34.43,35.051,36.368,33.104,36.083,34.745
34.422,35.018,36.379,33.083,36.268,34.705999999999996
34.415,34.982,36.391,33.061,36.446999999999996,34.671
34.41,34.944,36.403,33.038000000000004,36.616,34.639
34.407,34.904,36.414,33.016,36.772,34.609
34.406,34.864000000000004,36.423,32.995,36.915,34.58
34.408,34.823,36.429,32.979,37.042,34.552
34.411,34.781,36.431,32.971,37.153,34.523
34.414,34.739000000000004,36.427,32.974000000000004,37.248000000000005,34.491
34.415,34.698,36.418,32.991,37.327,34.455
34.415,34.657,36.404,33.025999999999996,37.389,34.416
34.412,34.617,36.383,33.082,37.435,34.373000000000005
34.407,34.579,36.357,33.16,37.465,34.327
34.4,34.543,36.327,33.264,37.48,34.277
34.389,34.509,36.292,33.393,37.483000000000004,34.225
34.376,34.478,36.253,33.547,37.474000000000004,34.173
34.36,34.45,36.213,33.726,37.454,34.122
34.344,34.425,36.17,33.926,37.426,34.075
34.327,34.404,36.126,34.144,37.391999999999996,34.031
34.311,34.385999999999996,36.080999999999996,34.378,37.354,33.992
34.296,34.371,36.035,34.622,37.314,33.959
34.282,34.358000000000004,35.989000000000004,34.874,37.274,33.931999999999995
34.269,34.347,35.943000000000005,35.126999999999995,37.236,33.911
34.256,34.336,35.897,35.376999999999995,37.199,33.895
34.244,34.325,35.853,35.62,37.165,33.885
34.232,34.313,35.81,35.85,37.135,33.876999999999995
34.221,34.3,35.768,36.065,37.109,33.872
34.21,34.285,35.728,36.262,37.086999999999996,33.868
34.2,34.268,35.688,36.437,37.067,33.861999999999995
34.189,34.248000000000005,35.65,36.59,37.048,33.854
34.178000000000004,34.228,35.61,36.72,37.031,33.842
34.167,34.207,35.569,36.826,37.013000000000005,33.826
34.156,34.185,35.525999999999996,36.909,36.994,33.805
34.146,34.163000000000004,35.48,36.967,36.974000000000004,33.78
34.135,34.141,35.43,37.004,36.953,33.751
34.126,34.119,35.378,37.02,36.93,33.72
34.118,34.098,35.323,37.019,36.905,33.688
34.111999999999995,34.077,35.266,37.001999999999995,36.879,33.654
34.108000000000004,34.058,35.205999999999996,36.973,36.852,33.62
34.107,34.042,35.145,36.934,36.821999999999996,33.586999999999996
34.107,34.029,35.084,36.889,36.79,33.554
34.107,34.016999999999996,35.022,36.839,36.757,33.524
34.107,34.007,34.963,36.787,36.721,33.497
34.106,33.996,34.907,36.736,36.684,33.473
34.104,33.986,34.854,36.688,36.645,33.453
34.099000000000004,33.974000000000004,34.804,36.644,36.604,33.436
34.093,33.961,34.755,36.604,36.562,33.421
34.084,33.946999999999996,34.705999999999996,36.566,36.519,33.407
34.074,33.931999999999995,34.657,36.531,36.476,33.395
34.062,33.915,34.606,36.498000000000005,36.433,33.383
34.05,33.897,34.553000000000004,36.467,36.389,33.372
34.038000000000004,33.876999999999995,34.498000000000005,36.436,36.346,33.36
34.027,33.857,34.442,36.407,36.303000000000004,33.346
34.016,33.836,34.385,36.378,36.260999999999996,33.33
34.006,33.817,34.326,36.351,36.22,33.313
33.999,33.798,34.266999999999996,36.324,36.181,33.293
33.994,33.78,34.207,36.297,36.145,33.271
33.993,33.765,34.146,36.271,36.111,33.247
33.994,33.753,34.086,36.245,36.082,33.222
34.0,33.745,34.025,36.219,36.056999999999995,33.195
34.009,33.74,33.964,36.192,36.036,33.166
34.022,33.74,33.902,36.165,36.021,33.135
34.04,33.746,33.841,36.135999999999996,36.009,33.104
34.063,33.760999999999996,33.783,36.105,36.003,33.071999999999996
34.094,33.787,33.727,36.073,36.0,33.039
34.135,33.827,33.675,36.038000000000004,36.001999999999995,33.007
34.185,33.884,33.626999999999995,36.001,36.006,32.974000000000004
34.249,33.959,33.584,35.963,36.013000000000005,32.943000000000005
34.326,34.054,33.545,35.923,36.021,32.912
34.418,34.171,33.510999999999996,35.88,36.031,32.881
34.525999999999996,34.308,33.482,35.836,36.042,32.852
34.648,34.463,33.457,35.79,36.055,32.824
34.784,34.635999999999996,33.437,35.742,36.069,32.797
34.933,34.824,33.42,35.693000000000005,36.084,32.771
35.091,35.023,33.406,35.643,36.101,32.745
35.258,35.231,33.396,35.593,36.12,32.721
35.43,35.443000000000005,33.39,35.543,36.141,32.696
35.605,35.654,33.387,35.494,36.164,32.671
35.779,35.86,33.388000000000005,35.446,36.188,32.646
35.948,36.056999999999995,33.394,35.399,36.211999999999996,32.621
36.109,36.241,33.405,35.354,36.235,32.594
36.258,36.409,33.423,35.312,36.256,32.566
36.391,36.559,33.448,35.272,36.275,32.536
36.508,36.69,33.482,35.235,36.29,32.505
36.606,36.799,33.525,35.201,36.3,32.473
36.684,36.885,33.576,35.169000000000004,36.305,32.44
36.743,36.949,33.634,35.14,36.305,32.408
36.782,36.992,33.696999999999996,35.114000000000004,36.299,32.378
36.804,37.015,33.763000000000005,35.091,36.288000000000004,32.35
36.809,37.02,33.829,35.07,36.272,32.324
36.8,37.010999999999996,33.893,35.054,36.251999999999995,32.301
36.778,36.989000000000004,33.951,35.042,36.228,32.28
36.746,36.958,34.001999999999995,35.034,36.201,32.26
36.707,36.92,34.043,35.03,36.171,32.241
36.663000000000004,36.876999999999995,34.074,35.03,36.139,32.221
36.616,36.833,34.094,35.033,36.106,32.201
36.569,36.789,34.102,35.037,36.071999999999996,32.178000000000004
36.523,36.746,34.1,35.042,36.036,32.153
36.478,36.705999999999996,34.088,35.048,35.999,32.126
36.436,36.669000000000004,34.068000000000005,35.053000000000004,35.961999999999996,32.096
36.398,36.637,34.041,35.058,35.925,32.064
36.361999999999995,36.61,34.008,35.061,35.889,32.031
36.33,36.586999999999996,33.971,35.063,35.854,31.999000000000002
36.302,36.57,33.931,35.064,35.821,31.968000000000004
36.275999999999996,36.556999999999995,33.89,35.065,35.791,31.941999999999997
36.253,36.549,33.849000000000004,35.064,35.763000000000005,31.924
36.231,36.543,33.809,35.062,35.736999999999995,31.915
36.21,36.541,33.771,35.056999999999995,35.713,31.921
36.19,36.54,33.736,35.05,35.691,31.945999999999998
36.17,36.539,33.704,35.04,35.669000000000004,31.993000000000002
36.149,36.538000000000004,33.677,35.029,35.648,32.067
36.126999999999995,36.537,33.654,35.015,35.628,32.174
36.104,36.534,33.634,34.998000000000005,35.609,32.316
36.080999999999996,36.529,33.617,34.98,35.59,32.499
36.059,36.521,33.601,34.959,35.571999999999996,32.724000000000004
36.038000000000004,36.510999999999996,33.586999999999996,34.936,35.554,32.994
36.019,36.496,33.575,34.91,35.537,33.309
36.001999999999995,36.479,33.563,34.881,35.521,33.668
35.986,36.457,33.552,34.85,35.506,34.069
35.97,36.431999999999995,33.543,34.817,35.492,34.509
35.953,36.403,33.535,34.783,35.481,34.982
35.935,36.37,33.527,34.747,35.47,35.483000000000004
35.914,36.333,33.521,34.71,35.46,36.006
35.891,36.291,33.516999999999996,34.674,35.45,36.542
35.864000000000004,36.246,33.513000000000005,34.64,35.437,37.082
35.835,36.199,33.509,34.607,35.423,37.619
35.804,36.15,33.506,34.575,35.404,38.141999999999996
35.769,36.1,33.505,34.544000000000004,35.382,38.645
35.731,36.05,33.504,34.512,35.356,39.12
35.689,36.0,33.505,34.479,35.327,39.56
35.644,35.952,33.506,34.445,35.297,39.961999999999996
35.596,35.905,33.509,34.409,35.265,40.321999999999996
35.548,35.86,33.515,34.373000000000005,35.232,40.638000000000005
35.499,35.819,33.523,34.336,35.199,40.908
35.451,35.782,33.536,34.298,35.168,41.131
35.406,35.75,33.555,34.26,35.138000000000005,41.31100000000001
35.366,35.722,33.583,34.221,35.11,41.448
35.332,35.696,33.621,34.183,35.084,41.544
35.304,35.672,33.673,34.145,35.06,41.603
35.284,35.652,33.741,34.106,35.039,41.629
35.27,35.633,33.826,34.068000000000005,35.02,41.625
35.263000000000005,35.617,33.929,34.029,35.001999999999995,41.595
35.262,35.603,34.052,33.991,34.986,41.543
35.266,35.591,34.193000000000005,33.953,34.97,41.474
35.275999999999996,35.579,34.351,33.914,34.955999999999996,41.391999999999996
35.291,35.568000000000005,34.524,33.876,34.942,41.299
35.308,35.556999999999995,34.708,33.84,34.934,41.199
35.328,35.547,34.902,33.805,34.933,41.095
35.348,35.538000000000004,35.1,33.772,34.939,40.99100000000001
35.367,35.529,35.299,33.74,34.95,40.887
35.384,35.521,35.495,33.71,34.963,40.786
35.4,35.515,35.681999999999995,33.681999999999995,34.975,40.689
35.413000000000004,35.508,35.857,33.654,34.984,40.597
35.423,35.503,36.014,33.626999999999995,34.988,40.51
35.431,35.497,36.150999999999996,33.602,34.985,40.431
35.437,35.491,36.266,33.577,34.974000000000004,40.357
35.441,35.484,36.357,33.554,34.955,40.29
35.443000000000005,35.475,36.425,33.532,34.928000000000004,40.229
35.444,35.464,36.47,33.51,34.894,40.174
35.443000000000005,35.452,36.494,33.49,34.854,40.124
35.44,35.439,36.499,33.47,34.811,40.077
35.436,35.425,36.489000000000004,33.45,34.766999999999996,40.035
35.43,35.41,36.467,33.431,34.723,39.998000000000005
35.424,35.391999999999996,36.435,33.411,34.681999999999995,39.966
35.417,35.373000000000005,36.397,33.391,34.645,39.941
35.41,35.351,36.355,33.37,34.613,39.92
35.402,35.327,36.311,33.348,34.585,39.902
35.394,35.301,36.268,33.326,34.562,39.882
35.385,35.275,36.225,33.303000000000004,34.544000000000004,39.859
35.373000000000005,35.248000000000005,36.185,33.28,34.529,39.83
35.36,35.221,36.148,33.257,34.516999999999996,39.792
35.345,35.194,36.114000000000004,33.235,34.508,39.745
35.329,35.168,36.084,33.213,34.501,39.686
35.312,35.141,36.058,33.191,34.496,39.617
35.296,35.115,36.035,33.17,34.491,39.538000000000004
35.28,35.09,36.016,33.15,34.486,39.45
35.265,35.066,35.999,33.132,34.481,39.355
35.251,35.042,35.983000000000004,33.115,34.476,39.255
35.236999999999995,35.018,35.967,33.1,34.47,39.15
35.222,34.994,35.949,33.088,34.463,39.043
35.205999999999996,34.971,35.929,33.077,34.455,38.936
35.188,34.946999999999996,35.907,33.067,34.445,38.829
35.17,34.924,35.882,33.059,34.433,38.726
35.150999999999996,34.9,35.853,33.052,34.42,38.626999999999995
35.13,34.875,35.823,33.046,34.405,38.534
35.108000000000004,34.848,35.79,33.04,34.389,38.449
35.084,34.819,35.757,33.035,34.372,38.373000000000005
35.059,34.789,35.724000000000004,33.028,34.354,38.306999999999995
35.031,34.758,35.69,33.02,34.336999999999996,38.251
35.001,34.726,35.655,33.010999999999996,34.32,38.204
34.97,34.696,35.62,32.998000000000005,34.306,38.167
34.939,34.666,35.584,32.984,34.294000000000004,38.137
34.908,34.637,35.548,32.968,34.288000000000004,38.111999999999995
34.878,34.61,35.51,32.949,34.288000000000004,38.092
34.849000000000004,34.585,35.471,32.927,34.298,38.074
34.823,34.562,35.429,32.904,34.32,38.058
34.799,34.543,35.385,32.881,34.356,38.044000000000004
34.775999999999996,34.527,35.34,32.858000000000004,34.409,38.032
34.756,34.512,35.293,32.836,34.479,38.023
34.736999999999995,34.499,35.245,32.816,34.569,38.016
34.719,34.486,35.195,32.797,34.679,38.010999999999996
34.702,34.471,35.146,32.78,34.809,38.007
34.686,34.455,35.097,32.765,34.958,38.003
34.671,34.438,35.049,32.751999999999995,35.126,37.998000000000005
34.656,34.419000000000004,35.001999999999995,32.741,35.311,37.991
34.641999999999996,34.399,34.957,32.731,35.512,37.982
34.628,34.376999999999995,34.915,32.724000000000004,35.724000000000004,37.97
34.613,34.354,34.876,32.719,35.944,37.955999999999996
34.597,34.330999999999996,34.841,32.716,36.169000000000004,37.939
34.58,34.306999999999995,34.812,32.714,36.395,37.918
34.561,34.283,34.79,32.714,36.617,37.894
34.541,34.259,34.775,32.717,36.830999999999996,37.867
34.522,34.235,34.766999999999996,32.724000000000004,37.033,37.835
34.501999999999995,34.211,34.766,32.736999999999995,37.222,37.799
34.483000000000004,34.187,34.772,32.756,37.395,37.757
34.465,34.164,34.784,32.786,37.551,37.708
34.446999999999996,34.141,34.8,32.829,37.689,37.652
34.429,34.118,34.82,32.889,37.808,37.588
34.411,34.096,34.842,32.968,37.911,37.516999999999996
34.391999999999996,34.075,34.865,33.071,37.996,37.437
34.373000000000005,34.055,34.888000000000005,33.196999999999996,38.066,37.351
34.354,34.035,34.911,33.348,38.12,37.26
34.336,34.016999999999996,34.935,33.523,38.162,37.166
34.319,34.001,34.959,33.719,38.191,37.069
34.302,33.986999999999995,34.982,33.934,38.209,36.971
34.288000000000004,33.976,35.006,34.164,38.217,36.873000000000005
34.274,33.967,35.029,34.404,38.216,36.775999999999996
34.260999999999996,33.96,35.05,34.649,38.207,36.681
34.25,33.954,35.07,34.895,38.191,36.586999999999996
34.24,33.95,35.088,35.138000000000005,38.169000000000004,36.493
34.231,33.946999999999996,35.103,35.371,38.143,36.400999999999996
34.224000000000004,33.945,35.114000000000004,35.592,38.115,36.31
34.219,33.946,35.122,35.795,38.085,36.221
34.213,33.946999999999996,35.126999999999995,35.978,38.056,36.132
34.205999999999996,33.95,35.128,36.138000000000005,38.028,36.044000000000004
34.199,33.953,35.126,36.274,38.001999999999995,35.957
34.19,33.957,35.122,36.385999999999996,37.979,35.871
34.179,33.965,35.116,36.476,37.957,35.786
34.167,33.978,35.109,36.543,37.937,35.701
34.154,33.998000000000005,35.102,36.589,37.918,35.617
34.141,34.028,35.095,36.616,37.900999999999996,35.533
34.128,34.069,35.09,36.626,37.885,35.45
34.116,34.124,35.086999999999996,36.621,37.87,35.368
34.106,34.194,35.085,36.604,37.856,35.286
34.098,34.281,35.086,36.576,37.843,35.205999999999996
34.092,34.384,35.086999999999996,36.541,37.833,35.126999999999995
34.088,34.504,35.088,36.498000000000005,37.825,35.05
34.085,34.641,35.09,36.45,37.821,34.976
34.082,34.792,35.091,36.398,37.821,34.904
34.080999999999996,34.955,35.094,36.345,37.825,34.836
34.08,35.126999999999995,35.098,36.292,37.833,34.772
34.078,35.305,35.104,36.24,37.843,34.711
34.076,35.485,35.111999999999995,36.19,37.854,34.653
34.073,35.663000000000004,35.123000000000005,36.141999999999996,37.865,34.599000000000004
34.068000000000005,35.836999999999996,35.135999999999996,36.099000000000004,37.873000000000005,34.548
34.061,36.003,35.152,36.058,37.876999999999995,34.5
34.052,36.158,35.171,36.02,37.876,34.453
34.042,36.299,35.194,35.986,37.869,34.408
34.031,36.425,35.222,35.953,37.856,34.364000000000004
34.019,36.535,35.254,35.923,37.836,34.319
34.008,36.626999999999995,35.292,35.894,37.81,34.274
33.998000000000005,36.702,35.333,35.864000000000004,37.779,34.227
33.99,36.759,35.38,35.835,37.744,34.179
33.983000000000004,36.8,35.43,35.805,37.705999999999996,34.13
33.977,36.83,35.484,35.775,37.666,34.079
33.973,36.856,35.538000000000004,35.744,37.626,34.029
33.971,36.88,35.592,35.714,37.586,33.978
33.972,36.903,35.645,35.683,37.547,33.928000000000004
33.98,36.923,35.693000000000005,35.652,37.508,33.88
33.995,36.938,35.735,35.621,37.47,33.834
34.021,36.946,35.771,35.589,37.431999999999995,33.792
34.058,36.945,35.799,35.556,37.395,33.753
34.108000000000004,36.931999999999995,35.819,35.521,37.358000000000004,33.718
34.174,36.909,35.830999999999996,35.485,37.321999999999996,33.687
34.255,36.874,35.836,35.446,37.288000000000004,33.66
34.351,36.829,35.835,35.405,37.256,33.635999999999996
34.464,36.775,35.827,35.363,37.229,33.614000000000004
34.592,36.714,35.813,35.318000000000005,37.207,33.594
34.733000000000004,36.649,35.794000000000004,35.272,37.189,33.574
34.885999999999996,36.582,35.772,35.226,37.178000000000004,33.553000000000004
35.049,36.516,35.746,35.179,37.171,33.531
35.219,36.453,35.717,35.131,37.166,33.507
35.393,36.394,35.685,35.084,37.163000000000004,33.48
35.566,36.34,35.653,35.036,37.161,33.451
35.736,36.291,35.621,34.99,37.159,33.42
35.9,36.246,35.592,34.945,37.154,33.385999999999996
36.052,36.205999999999996,35.565,34.903,37.147,33.352
36.191,36.17,35.543,34.865,37.135999999999996,33.317
36.315,36.138000000000005,35.524,34.830999999999996,37.121,33.283
36.421,36.11,35.51,34.801,37.101,33.249
36.51,36.085,35.499,34.775999999999996,37.077,33.217
36.580999999999996,36.061,35.491,34.755,37.048,33.187
36.634,36.039,35.486,34.739000000000004,37.016,33.159
36.67,36.015,35.483000000000004,34.728,36.98,33.132
36.691,35.989000000000004,35.481,34.72,36.941,33.107
36.699,35.961999999999996,35.48,34.716,36.900999999999996,33.083
36.694,35.931999999999995,35.478,34.716,36.858000000000004,33.06
36.679,35.899,35.478,34.718,36.815,33.039
36.657,35.864000000000004,35.477,34.723,36.77,33.016999999999996
36.628,35.826,35.475,34.73,36.725,32.995
36.594,35.785,35.47,34.738,36.679,32.972
36.556,35.742,35.461999999999996,34.748000000000005,36.633,32.946
36.515,35.695,35.45,34.757,36.585,32.917
36.471,35.647,35.436,34.768,36.537,32.885
36.424,35.598,35.418,34.778,36.486999999999995,32.85
36.376,35.548,35.398,34.786,36.438,32.812
36.326,35.5,35.375,34.793,36.387,32.771
36.278,35.455,35.349000000000004,34.798,36.336999999999996,32.729
36.231,35.414,35.32,34.8,36.287,32.685
36.187,35.378,35.289,34.801,36.236999999999995,32.641999999999996
36.146,35.35,35.254,34.8,36.187,32.599000000000004
36.108000000000004,35.327,35.218,34.797,36.137,32.558
36.073,35.311,35.18,34.793,36.086999999999996,32.518
36.042,35.3,35.143,34.788000000000004,36.037,32.48
36.014,35.293,35.106,34.782,35.988,32.445
35.989000000000004,35.29,35.073,34.774,35.94,32.413000000000004
35.966,35.289,35.043,34.766,35.894,32.384
35.946,35.292,35.018,34.757,35.849000000000004,32.358000000000004
35.93,35.298,35.0,34.746,35.806,32.336
35.917,35.306,34.99,34.733000000000004,35.766,32.317
35.906,35.315,34.991,34.718,35.728,32.301
35.899,35.323,35.003,34.7,35.694,32.287
35.891999999999996,35.33,35.028,34.679,35.663000000000004,32.275999999999996
35.885,35.336999999999996,35.067,34.655,35.635999999999996,32.265
35.875,35.343,35.121,34.629,35.613,32.253
35.863,35.349000000000004,35.191,34.6,35.593,32.24
35.848,35.355,35.277,34.569,35.575,32.224000000000004
35.829,35.36,35.378,34.536,35.556999999999995,32.205999999999996
35.806,35.364000000000004,35.493,34.501999999999995,35.54,32.184
35.78,35.368,35.62,34.468,35.521,32.158
35.75,35.371,35.757,34.433,35.501,32.13
35.718,35.374,35.900999999999996,34.399,35.479,32.098
35.683,35.375,36.048,34.365,35.455999999999996,32.065
35.647,35.375,36.196999999999996,34.332,35.431,32.031
35.61,35.373000000000005,36.344,34.299,35.406,31.998
35.573,35.367,36.485,34.266999999999996,35.381,31.967
35.535,35.359,36.619,34.235,35.355,31.938000000000002
35.497,35.348,36.742,34.204,35.328,31.910999999999998
35.459,35.334,36.854,34.174,35.301,31.886999999999997
35.423,35.317,36.954,34.145,35.272,31.866999999999997
35.388000000000005,35.296,37.039,34.118,35.242,31.849
35.356,35.272,37.11,34.092,35.211,31.834
35.325,35.245,37.166,34.065,35.178000000000004,31.819000000000003
35.297,35.215,37.208,34.037,35.144,31.805
35.271,35.183,37.236999999999995,34.009,35.107,31.79
35.248000000000005,35.149,37.253,33.98,35.069,31.772
35.228,35.113,37.257,33.953,35.029,31.750999999999998
35.211999999999996,35.077,37.25,33.926,34.988,31.726999999999997
35.199,35.042,37.231,33.900999999999996,34.946999999999996,31.699
35.191,35.008,37.203,33.876999999999995,34.907,31.669
35.186,34.975,37.167,33.855,34.868,31.635
35.187,34.944,37.123000000000005,33.833,34.832,31.599
35.191,34.916,37.073,33.812,34.798,31.563000000000002
35.199,34.89,37.016999999999996,33.792,34.766999999999996,31.526
35.21,34.868,36.958,33.773,34.736999999999995,31.489
35.223,34.849000000000004,36.897,33.754,34.709,31.454
35.239000000000004,34.832,36.835,33.735,34.681,31.421999999999997
35.255,34.817,36.773,33.717,34.655,31.393
35.273,34.802,36.71,33.698,34.63,31.366999999999997
35.29,34.788000000000004,36.649,33.68,34.606,31.345
35.306999999999995,34.772,36.588,33.661,34.583,31.326999999999998
35.321,34.756,36.529,33.644,34.562,31.311
35.330999999999996,34.739000000000004,36.472,33.626,34.543,31.298000000000002
35.336999999999996,34.72,36.417,33.609,34.525999999999996,31.288
35.339,34.698,36.365,33.59,34.510999999999996,31.28
35.336,34.674,36.315,33.569,34.499,31.275
35.33,34.648,36.268,33.548,34.489000000000004,31.275
35.321999999999996,34.618,36.226,33.525999999999996,34.482,31.281
35.312,34.586999999999996,36.187,33.504,34.477,31.296
35.302,34.555,36.154,33.483000000000004,34.474000000000004,31.323
35.292,34.522,36.125,33.461999999999996,34.471,31.366
35.283,34.489000000000004,36.1,33.442,34.467,31.429000000000002
35.274,34.455,36.078,33.422,34.461,31.517
35.266,34.423,36.059,33.400999999999996,34.453,31.635
35.257,34.391999999999996,36.041,33.381,34.442,31.787
35.249,34.363,36.025,33.361999999999995,34.43,31.978
35.241,34.335,36.008,33.345,34.416,32.211
35.234,34.308,35.989000000000004,33.33,34.400999999999996,32.486999999999995
35.226,34.283,35.968,33.317,34.388000000000005,32.809
35.217,34.259,35.945,33.305,34.376,33.174
35.205,34.236,35.919000000000004,33.295,34.365,33.58
35.191,34.215,35.891,33.285,34.354,34.022
35.174,34.194,35.86,33.275,34.343,34.495
35.153,34.175,35.827,33.266,34.329,34.991
35.13,34.158,35.794000000000004,33.258,34.313,35.499
35.103,34.141,35.76,33.249,34.295,36.012
35.075,34.125,35.726,33.239000000000004,34.275,36.519
35.045,34.109,35.692,33.228,34.253,37.010999999999996
35.014,34.095,35.658,33.215,34.23,37.479
34.983000000000004,34.083,35.623000000000005,33.201,34.207,37.916
34.952,34.071,35.586999999999996,33.187,34.185,38.317
34.922,34.061,35.551,33.174,34.165,38.677
34.893,34.05,35.513000000000005,33.161,34.147,38.995
34.866,34.038000000000004,35.474000000000004,33.149,34.13,39.269
34.84,34.024,35.434,33.138000000000005,34.111999999999995,39.498000000000005
34.818000000000005,34.01,35.394,33.128,34.089,39.683
34.8,33.994,35.354,33.118,34.06,39.826
34.785,33.976,35.315,33.109,34.025,39.929
34.773,33.958,35.277,33.101,33.986,39.994
34.763000000000005,33.939,35.241,33.092,33.944,40.025999999999996
34.753,33.921,35.205,33.083,33.902,40.029
34.743,33.902,35.17,33.073,33.861,40.007
34.732,33.884,35.135999999999996,33.061,33.824,39.966
34.719,33.867,35.103,33.049,33.793,39.908
34.703,33.851,35.071,33.035,33.77,39.838
34.685,33.839,35.04,33.02,33.756,39.758
34.665,33.828,35.01,33.004,33.751999999999995,39.672
34.643,33.821999999999996,34.983000000000004,32.986999999999995,33.76,39.582
34.62,33.819,34.955999999999996,32.969,33.779,39.488
34.595,33.821999999999996,34.933,32.951,33.811,39.394
34.569,33.830999999999996,34.913000000000004,32.933,33.854,39.3
34.543,33.848,34.897,32.917,33.91,39.207
34.516,33.874,34.884,32.904,33.98,39.118
34.49,33.912,34.873000000000005,32.894,34.064,39.031
34.464,33.961999999999996,34.863,32.888000000000005,34.164,38.948
34.44,34.028,34.853,32.883,34.281,38.867
34.418,34.11,34.842,32.88,34.417,38.789
34.4,34.211,34.829,32.878,34.571,38.715
34.384,34.330999999999996,34.815,32.876999999999995,34.744,38.643
34.37,34.468,34.798,32.876,34.934,38.575
34.358000000000004,34.622,34.78,32.876,35.138000000000005,38.51
34.348,34.79,34.760999999999996,32.875,35.354,38.449
34.339,34.971,34.741,32.874,35.578,38.39
34.330999999999996,35.16,34.721,32.872,35.808,38.334
34.323,35.354,34.699,32.869,36.038000000000004,38.281
34.315,35.55,34.676,32.864000000000004,36.266999999999996,38.232
34.306999999999995,35.744,34.652,32.859,36.489000000000004,38.185
34.298,35.931999999999995,34.626999999999995,32.853,36.7,38.141999999999996
34.288000000000004,36.11,34.6,32.846,36.899,38.102
34.275999999999996,36.275,34.571,32.838,37.083,38.063
34.263000000000005,36.425,34.54,32.83,37.25,38.025
34.247,36.559,34.508,32.821999999999996,37.399,37.986999999999995
34.231,36.674,34.475,32.815,37.53,37.948
34.215,36.771,34.444,32.81,37.641999999999996,37.906
34.2,36.851,34.415,32.808,37.736,37.86
34.187,36.913000000000004,34.39,32.813,37.812,37.81
34.176,36.959,34.369,32.826,37.87,37.754
34.167,36.99,34.353,32.85,37.911,37.693000000000005
34.159,37.008,34.342,32.885999999999996,37.936,37.626
34.152,37.014,34.334,32.937,37.946999999999996,37.553000000000004
34.145,37.01,34.33,33.007,37.944,37.476
34.138000000000005,36.998000000000005,34.327,33.098,37.93,37.395
34.13,36.979,34.326,33.211,37.905,37.312
34.122,36.954,34.324,33.348,37.871,37.227
34.114000000000004,36.925,34.323,33.509,37.83,37.144
34.106,36.894,34.321,33.694,37.783,37.064
34.096,36.861999999999995,34.32,33.9,37.735,36.989000000000004
34.085,36.83,34.32,34.125,37.688,36.919000000000004
34.074,36.8,34.321,34.364000000000004,37.643,36.857
34.062,36.77,34.326,34.614000000000004,37.603,36.803000000000004
34.049,36.74,34.332,34.869,37.568000000000005,36.758
34.038000000000004,36.711,34.342,35.125,37.538000000000004,36.721
34.027,36.683,34.353,35.373000000000005,37.513000000000005,36.694
34.018,36.655,34.365,35.61,37.492,36.674
34.01,36.629,34.376999999999995,35.832,37.474000000000004,36.662
34.004,36.604,34.389,36.035,37.459,36.655
34.0,36.579,34.399,36.217,37.446999999999996,36.653
33.996,36.555,34.407,36.376999999999995,37.435,36.654
33.992,36.531,34.412,36.513000000000005,37.425,36.655
33.986999999999995,36.508,34.413000000000004,36.625,37.414,36.655
33.98,36.486,34.411,36.714,37.402,36.652
33.972,36.464,34.406,36.78,37.391,36.647
33.961999999999996,36.442,34.398,36.824,37.38,36.637
33.951,36.422,34.388000000000005,36.847,37.37,36.624
33.938,36.402,34.375,36.853,37.361,36.607
33.925,36.383,34.36,36.844,37.354,36.586
33.911,36.364000000000004,34.342,36.821,37.346,36.562
33.897,36.346,34.323,36.787,37.338,36.535
33.884,36.327,34.301,36.744,37.327,36.504
33.871,36.308,34.277,36.694,37.313,36.471
33.86,36.287,34.25,36.64,37.297,36.434
33.85,36.260999999999996,34.222,36.584,37.275,36.395
33.842,36.232,34.192,36.527,37.249,36.354
33.838,36.198,34.16,36.47,37.217,36.31
33.836999999999996,36.162,34.126999999999995,36.413000000000004,37.179,36.266
33.838,36.123000000000005,34.092,36.358000000000004,37.134,36.22
33.842,36.080999999999996,34.056999999999995,36.303000000000004,37.082,36.173
33.847,36.037,34.022,36.249,37.025,36.124
33.852,35.99,33.988,36.194,36.965,36.075
33.857,35.941,33.955,36.139,36.902,36.023
33.86,35.891,33.925,36.085,36.839,35.97
33.861999999999995,35.841,33.9,36.031,36.777,35.914
33.863,35.792,33.88,35.977,36.718,35.853
33.861,35.745,33.866,35.925,36.661,35.789
33.858000000000004,35.702,33.857,35.874,36.607,35.719
33.854,35.662,33.852,35.825,36.558,35.644
33.847,35.628,33.85,35.778,36.514,35.563
33.84,35.598,33.849000000000004,35.732,36.476,35.478
33.834,35.573,33.847,35.69,36.446,35.388000000000005
33.829,35.554,33.845,35.65,36.422,35.295
33.827,35.54,33.841,35.611999999999995,36.405,35.202
33.83,35.529,33.835,35.576,36.395,35.108000000000004
33.84,35.522,33.827,35.542,36.391,35.016
33.859,35.519,33.818000000000005,35.51,36.391,34.927
33.89,35.516999999999996,33.806999999999995,35.48,36.396,34.841
33.933,35.518,33.796,35.452,36.404,34.759
33.992,35.521,33.786,35.425,36.414,34.681999999999995
34.067,35.525999999999996,33.775999999999996,35.399,36.426,34.608000000000004
34.16,35.532,33.768,35.373000000000005,36.44,34.538000000000004
34.272,35.538000000000004,33.76,35.346,36.454,34.472
34.403,35.545,33.753,35.32,36.467,34.409
34.554,35.551,33.748000000000005,35.292,36.48,34.349000000000004
34.723,35.556999999999995,33.744,35.263000000000005,36.491,34.291
34.907,35.561,33.741,35.233000000000004,36.501,34.235
35.105,35.563,33.738,35.202,36.51,34.181999999999995
35.312,35.564,33.736999999999995,35.171,36.519,34.13
35.524,35.562,33.738,35.14,36.527,34.079
35.736,35.556999999999995,33.741,35.11,36.534,34.028
35.944,35.549,33.748000000000005,35.08,36.539,33.979
36.145,35.538000000000004,33.762,35.05,36.541,33.929
36.334,35.525,33.784,35.022,36.54,33.88
36.508,35.508,33.815,34.994,36.536,33.832
36.666,35.488,33.858000000000004,34.966,36.529,33.784
36.804,35.464,33.914,34.937,36.518,33.735
36.922,35.436,33.985,34.908,36.504,33.686
37.016999999999996,35.405,34.071,34.879,36.486999999999995,33.638000000000005
37.092,35.371,34.172,34.851,36.468,33.59
37.144,35.336,34.286,34.825,36.446999999999996,33.543
37.178000000000004,35.3,34.411,34.8,36.425,33.497
37.192,35.265,34.546,34.779,36.402,33.454
37.191,35.23,34.688,34.76,36.378,33.414
37.176,35.196999999999996,34.833,34.745,36.354,33.376999999999995
37.15,35.166,34.979,34.733000000000004,36.33,33.343
37.116,35.135999999999996,35.122,34.725,36.305,33.311
37.075,35.108000000000004,35.26,34.72,36.278,33.283
37.03,35.082,35.389,34.719,36.248000000000005,33.256
36.983000000000004,35.058,35.508,34.72,36.216,33.229
36.935,35.036,35.614000000000004,34.722,36.18,33.203
36.887,35.015,35.708,34.725,36.141999999999996,33.176
36.841,34.994,35.787,34.727,36.102,33.148
36.796,34.974000000000004,35.851,34.73,36.061,33.118
36.754,34.953,35.902,34.732,36.019,33.086
36.716,34.929,35.939,34.734,35.976,33.053000000000004
36.68,34.903,35.964,34.736999999999995,35.933,33.019
36.647,34.872,35.976,34.739000000000004,35.89,32.986
36.616,34.836999999999996,35.978,34.74,35.848,32.953
36.586,34.801,35.972,34.739000000000004,35.806,32.922
36.558,34.763000000000005,35.959,34.736999999999995,35.765,32.894
36.53,34.726,35.941,34.732,35.724000000000004,32.87
36.504,34.69,35.919000000000004,34.725,35.685,32.85
36.478,34.655,35.894,34.716,35.646,32.835
36.454,34.623000000000005,35.867,34.704,35.608000000000004,32.823
36.431999999999995,34.593,35.838,34.69,35.57,32.814
36.411,34.564,35.808,34.672,35.532,32.806999999999995
36.391,34.538000000000004,35.777,34.653,35.495,32.8
36.371,34.512,35.746,34.632,35.458,32.795
36.352,34.489000000000004,35.715,34.61,35.423,32.793
36.333,34.466,35.684,34.589,35.389,32.797
36.315,34.444,35.653,34.568000000000005,35.357,32.804
36.299,34.42,35.623000000000005,34.549,35.328,32.814
36.282,34.395,35.59,34.53,35.3,32.824
36.266999999999996,34.369,35.555,34.512,35.274,32.833
36.251,34.343,35.516,34.496,35.249,32.836999999999996
36.234,34.316,35.474000000000004,34.48,35.225,32.835
36.216,34.29,35.429,34.467,35.201,32.826
36.195,34.264,35.382,34.455,35.178000000000004,32.809
36.172,34.24,35.332,34.445,35.155,32.784
36.144,34.218,35.281,34.435,35.133,32.751
36.111,34.196999999999996,35.228,34.423,35.111,32.711999999999996
36.076,34.178000000000004,35.173,34.408,35.09,32.668
36.038000000000004,34.161,35.118,34.39,35.069,32.622
35.999,34.146,35.062,34.368,35.048,32.574
35.959,34.132,35.007,34.342,35.029,32.527
35.92,34.119,34.951,34.313,35.01,32.481
35.882,34.107,34.895,34.28,34.993,32.439
35.845,34.095,34.838,34.245,34.975,32.4
35.81,34.083,34.78,34.205999999999996,34.958,32.365
35.777,34.07,34.722,34.167,34.94,32.333
35.747,34.055,34.663000000000004,34.126,34.922,32.303000000000004
35.72,34.038000000000004,34.603,34.086,34.903,32.275
35.696999999999996,34.019,34.544000000000004,34.047,34.884,32.248000000000005
35.677,33.998000000000005,34.486,34.009,34.864000000000004,32.221
35.659,33.975,34.431,33.972,34.844,32.193000000000005
35.645,33.951,34.378,33.937,34.824,32.164
35.632,33.927,34.329,33.902,34.804,32.134
35.621,33.902,34.282,33.869,34.785,32.104
35.611,33.878,34.239000000000004,33.836,34.766,32.073
35.603,33.855,34.2,33.804,34.747,32.043
35.596,33.832,34.165,33.773,34.728,32.013000000000005
35.591,33.811,34.135999999999996,33.743,34.709,31.986
35.585,33.792,34.113,33.715,34.691,31.962
35.58,33.774,34.096,33.688,34.672,31.941999999999997
35.576,33.758,34.086999999999996,33.665,34.653,31.926
35.571,33.744,34.084,33.644,34.635,31.914
35.566,33.732,34.089,33.626,34.617,31.906999999999996
35.56,33.722,34.1,33.611,34.599000000000004,31.903000000000002
35.553000000000004,33.711999999999996,34.117,33.596,34.580999999999996,31.9
35.545,33.704,34.139,33.580999999999996,34.563,31.897
35.537,33.696999999999996,34.164,33.567,34.546,31.893
35.528,33.693000000000005,34.191,33.553000000000004,34.528,31.885
35.518,33.692,34.22,33.54,34.510999999999996,31.873
35.509,33.695,34.25,33.527,34.495,31.855999999999998
35.5,33.703,34.281,33.516,34.479,31.833000000000002
35.492,33.718,34.312,33.505,34.465,31.805
35.484,33.741,34.344,33.495,34.451,31.772
35.476,33.775999999999996,34.376,33.486999999999995,34.437,31.735
35.468,33.823,34.408,33.479,34.423,31.695
35.46,33.885999999999996,34.44,33.471,34.408,31.655
35.451,33.965,34.471,33.465,34.391999999999996,31.616999999999997
35.443000000000005,34.061,34.501,33.459,34.374,31.581999999999997
35.434,34.173,34.53,33.454,34.355,31.551
35.425,34.302,34.558,33.451,34.334,31.525
35.415,34.446999999999996,34.584,33.446999999999996,34.313,31.505
35.405,34.607,34.608000000000004,33.444,34.291,31.49
35.393,34.781,34.629,33.441,34.268,31.48
35.379,34.965,34.648,33.437,34.246,31.473000000000003
35.363,35.156,34.663000000000004,33.434,34.224000000000004,31.468000000000004
35.345,35.352,34.677,33.429,34.203,31.465
35.324,35.548,34.69,33.423,34.183,31.461
35.303000000000004,35.742,34.702,33.414,34.164,31.455
35.281,35.929,34.713,33.404,34.145,31.447
35.258,36.106,34.726,33.393,34.128,31.436
35.235,36.27,34.739000000000004,33.381,34.111999999999995,31.421
35.211999999999996,36.418,34.753,33.37,34.098,31.401999999999997
35.189,36.548,34.766,33.358000000000004,34.085,31.379
35.165,36.659,34.779,33.347,34.075,31.354
35.141999999999996,36.751999999999995,34.789,33.336,34.069,31.328000000000003
35.119,36.826,34.795,33.324,34.07,31.3
35.097,36.882,34.797,33.313,34.080999999999996,31.274
35.074,36.92,34.795,33.301,34.103,31.248
35.052,36.942,34.789,33.289,34.14,31.225
35.031,36.949,34.779,33.275,34.193000000000005,31.204
35.01,36.943000000000005,34.766999999999996,33.256,34.264,31.185
34.988,36.927,34.753,33.233000000000004,34.354,31.168000000000003
34.965,36.904,34.738,33.207,34.464,31.154
34.942,36.874,34.723,33.179,34.592,31.141
34.918,36.841,34.707,33.150999999999996,34.739000000000004,31.13
34.893,36.806,34.692,33.126,34.903,31.119
34.868,36.771,34.677,33.105,35.083,31.108
34.844,36.738,34.663000000000004,33.09,35.275,31.095
34.82,36.708,34.65,33.082,35.477,31.081
34.797,36.681999999999995,34.638000000000005,33.080999999999996,35.686,31.065
34.773,36.661,34.628,33.086,35.899,31.046
34.749,36.645,34.618,33.097,36.113,31.026
34.726,36.632,34.607,33.115,36.324,31.003
34.703,36.622,34.596,33.135999999999996,36.53,30.98
34.68,36.615,34.586,33.161,36.727,30.956
34.659,36.609,34.575,33.187,36.912,30.934
34.638000000000005,36.605,34.563,33.211999999999996,37.084,30.914
34.619,36.601,34.551,33.235,37.24,30.899
34.6,36.597,34.539,33.255,37.378,30.892
34.583,36.593,34.525,33.272,37.497,30.896
34.566,36.588,34.51,33.284,37.597,30.916
34.549,36.58,34.494,33.293,37.677,30.955
34.532,36.571,34.477,33.296,37.739000000000004,31.018
34.514,36.56,34.458,33.295,37.782,31.109
34.497,36.547,34.439,33.288000000000004,37.809,31.232
34.479,36.532,34.419000000000004,33.277,37.821,31.39
34.463,36.516,34.4,33.263000000000005,37.82,31.586
34.446999999999996,36.499,34.381,33.247,37.809,31.822
34.434,36.48,34.364000000000004,33.231,37.791,32.097
34.422,36.459,34.349000000000004,33.214,37.768,32.411
34.411,36.437,34.336,33.196,37.74,32.762
34.400999999999996,36.412,34.325,33.178000000000004,37.709,33.146
34.391999999999996,36.384,34.316,33.158,37.675,33.558
34.382,36.353,34.308,33.139,37.639,33.993
34.372,36.319,34.302,33.119,37.6,34.444
34.359,36.282,34.296,33.098,37.561,34.904
34.344,36.242,34.291,33.078,37.521,35.365
34.327,36.201,34.286,33.059,37.481,35.821999999999996
34.308,36.159,34.282,33.044000000000004,37.442,36.266
34.288000000000004,36.115,34.278,33.035,37.405,36.692
34.266,36.071999999999996,34.275,33.035,37.37,37.093
34.243,36.027,34.274,33.048,37.338,37.464
34.22,35.981,34.273,33.077,37.31,37.801
34.196999999999996,35.936,34.273,33.125,37.285,38.1
34.175,35.891999999999996,34.274,33.194,37.264,38.361999999999995
34.156,35.851,34.277,33.288000000000004,37.245,38.584
34.14,35.812,34.279,33.406,37.229,38.766999999999996
34.128,35.775999999999996,34.281,33.549,37.213,38.913000000000004
34.119,35.744,34.28,33.716,37.199,39.023
34.113,35.715,34.277,33.905,37.184,39.1
34.111,35.69,34.272,34.115,37.169000000000004,39.145
34.111999999999995,35.667,34.265,34.341,37.154,39.16
34.115,35.645,34.257,34.58,37.137,39.15
34.119,35.625,34.248000000000005,34.826,37.12,39.115
34.124,35.604,34.238,35.074,37.1,39.061
34.129,35.585,34.23,35.319,37.08,38.989000000000004
34.133,35.567,34.229,35.556999999999995,37.056999999999995,38.902
34.137,35.55,34.235,35.784,37.031,38.806
34.138000000000005,35.535,34.247,35.996,37.003,38.702
34.137,35.521,34.263000000000005,36.189,36.971,38.594
34.132,35.509,34.281,36.361,36.934,38.486999999999995
34.125,35.499,34.297,36.51,36.891999999999996,38.38
34.115,35.49,34.31,36.635,36.844,38.277
34.103,35.48,34.318000000000005,36.735,36.792,38.176
34.09,35.471,34.319,36.811,36.736,38.08
34.077,35.463,34.313,36.861999999999995,36.678000000000004,37.988
34.064,35.454,34.301,36.891,36.619,37.902
34.053000000000004,35.445,34.284,36.898,36.56,37.824
34.044000000000004,35.436,34.263000000000005,36.885999999999996,36.503,37.753
34.037,35.427,34.239000000000004,36.856,36.449,37.69
34.031,35.416,34.213,36.812,36.399,37.634
34.027,35.404,34.187,36.758,36.355,37.586999999999996
34.023,35.39,34.162,36.694,36.315,37.547
34.019,35.374,34.138000000000005,36.625,36.28,37.514
34.015,35.356,34.117,36.552,36.25,37.486
34.009,35.336,34.1,36.478,36.225,37.461
34.003,35.315,34.086999999999996,36.405,36.203,37.438
33.995,35.291,34.079,36.333,36.186,37.416
33.985,35.265,34.076,36.265,36.173,37.391999999999996
33.975,35.236,34.078,36.201,36.162,37.367
33.963,35.205,34.084,36.141,36.155,37.339
33.95,35.173,34.097,36.086999999999996,36.15,37.306999999999995
33.938,35.14,34.116,36.036,36.147,37.27
33.927,35.105,34.143,35.989000000000004,36.146,37.229
33.919000000000004,35.07,34.18,35.946,36.147,37.181
33.913000000000004,35.033,34.23,35.906,36.15,37.126999999999995
33.909,34.996,34.292,35.871,36.153,37.067
33.906,34.958,34.37,35.84,36.155,37.0
33.904,34.92,34.461999999999996,35.81,36.157,36.928000000000004
33.900999999999996,34.883,34.569,35.783,36.155,36.852
33.897,34.845,34.692,35.757,36.15,36.773
33.891,34.809,34.827,35.732,36.141999999999996,36.693000000000005
33.883,34.772,34.972,35.708,36.129,36.614000000000004
33.873000000000005,34.736999999999995,35.124,35.684,36.114000000000004,36.539
33.861,34.702,35.28,35.66,36.097,36.469
33.848,34.668,35.436,35.635,36.078,36.406
33.834,34.635,35.588,35.609,36.056999999999995,36.351
33.821,34.602,35.735,35.58,36.035,36.304
33.808,34.569,35.872,35.549,36.012,36.266999999999996
33.795,34.537,35.997,35.515,35.988,36.236999999999995
33.785,34.505,36.108000000000004,35.478,35.964,36.216
33.775999999999996,34.475,36.203,35.439,35.937,36.203
33.771,34.445,36.282,35.398,35.91,36.196
33.77,34.416,36.343,35.354,35.881,36.195
33.774,34.388000000000005,36.388000000000005,35.31,35.85,36.198
33.785,34.359,36.417,35.264,35.816,36.204
33.801,34.330999999999996,36.431,35.216,35.781,36.213
33.826,34.303000000000004,36.431999999999995,35.168,35.743,36.223
33.859,34.275999999999996,36.423,35.12,35.703,36.235
33.902,34.249,36.405,35.073,35.661,36.247
33.958,34.222,36.381,35.027,35.618,36.26
34.027,34.196,36.353,34.984,35.575,36.273
34.111999999999995,34.17,36.321999999999996,34.944,35.532,36.286
34.214,34.144,36.292,34.909,35.489000000000004,36.3
34.332,34.12,36.262,34.876999999999995,35.446,36.314
34.469,34.095,36.233000000000004,34.851,35.402,36.327
34.622,34.071999999999996,36.205999999999996,34.829,35.358000000000004,36.339
34.79,34.048,36.18,34.814,35.314,36.35
34.972,34.025,36.156,34.803000000000004,35.268,36.358000000000004
35.164,34.003,36.134,34.797,35.222,36.361999999999995
35.364000000000004,33.98,36.111999999999995,34.795,35.174,36.363
35.569,33.958,36.091,34.797,35.126999999999995,36.36
35.775,33.937,36.069,34.802,35.079,36.351
35.98,33.916,36.047,34.811,35.031,36.336999999999996
36.178000000000004,33.897,36.023,34.823,34.985,36.317
36.368,33.878,35.999,34.836999999999996,34.939,36.291
36.544000000000004,33.86,35.975,34.855,34.895,36.26
36.704,33.841,35.951,34.875,34.852,36.223
36.845,33.821999999999996,35.927,34.896,34.812,36.18
36.965,33.802,35.904,34.917,34.773,36.133
37.063,33.781,35.882,34.938,34.736,36.079
37.14,33.759,35.861999999999995,34.959,34.7,36.021
37.196999999999996,33.735,35.845,34.978,34.665,35.958
37.235,33.71,35.829,34.995,34.63,35.89
37.256,33.683,35.814,35.01,34.596,35.819
37.264,33.654,35.801,35.022,34.562,35.745
37.258,33.625,35.789,35.031,34.528,35.67
37.241,33.597,35.775999999999996,35.037,34.496,35.594
37.214,33.569,35.763000000000005,35.04,34.464,35.518
37.179,33.542,35.748000000000005,35.041,34.434,35.444
37.137,33.516999999999996,35.731,35.04,34.404,35.373000000000005
37.092,33.493,35.711,35.036,34.374,35.304
37.046,33.47,35.689,35.029,34.345,35.239000000000004
37.001999999999995,33.449,35.665,35.02,34.315,35.176
36.961,33.431,35.639,35.009,34.284,35.116
36.925,33.413000000000004,35.611,34.995,34.254,35.058
36.893,33.398,35.580999999999996,34.981,34.224000000000004,35.001
36.865,33.384,35.549,34.965,34.194,34.943000000000005
36.842,33.371,35.514,34.949,34.165,34.885
36.823,33.359,35.477,34.929,34.137,34.825
36.808,33.347,35.438,34.907,34.109,34.763000000000005
36.795,33.338,35.398,34.88,34.082,34.701
36.785,33.33,35.357,34.85,34.056,34.637
36.777,33.326,35.315,34.818000000000005,34.031,34.573
36.769,33.325,35.275999999999996,34.784,34.007,34.509
36.76,33.326,35.238,34.749,33.986999999999995,34.446
36.75,33.332,35.203,34.715,33.968,34.385
36.738,33.344,35.17,34.681999999999995,33.952,34.327
36.722,33.361999999999995,35.141,34.65,33.938,34.27
36.704,33.391,35.114000000000004,34.619,33.925,34.217
36.684,33.431999999999995,35.09,34.59,33.913000000000004,34.166
36.661,33.486999999999995,35.068000000000005,34.563,33.900999999999996,34.118
36.635999999999996,33.556,35.05,34.537,33.889,34.074
36.61,33.643,35.034,34.513000000000005,33.876,34.032
36.582,33.746,35.02,34.49,33.863,33.992
36.553000000000004,33.866,35.009,34.467,33.849000000000004,33.955
36.523,34.001999999999995,35.001,34.443000000000005,33.834,33.92
36.493,34.152,34.995,34.419000000000004,33.817,33.887
36.461999999999996,34.316,34.993,34.393,33.799,33.856
36.43,34.49,34.992,34.365,33.779,33.827
36.399,34.671,34.993,34.338,33.757,33.798
36.367,34.856,34.996,34.313,33.734,33.77
36.336,35.041,35.001,34.289,33.711,33.742
36.306,35.224000000000004,35.006,34.268,33.688,33.714
36.275999999999996,35.399,35.012,34.248000000000005,33.666,33.686
36.246,35.565,35.016,34.23,33.644,33.658
36.216,35.717,35.019,34.211999999999996,33.624,33.63
36.185,35.854,35.019,34.195,33.605,33.603
36.153,35.975,35.016999999999996,34.177,33.586999999999996,33.575
36.121,36.077,35.012,34.157,33.57,33.548
36.09,36.162,35.004,34.134,33.552,33.521
36.06,36.229,34.995,34.109,33.534,33.496
36.032,36.278,34.983000000000004,34.080999999999996,33.516,33.471
36.007,36.311,34.971,34.052,33.498000000000005,33.448
35.984,36.329,34.959,34.023,33.481,33.425
35.963,36.333,34.946,33.993,33.464,33.404
35.944,36.326,34.931999999999995,33.964,33.449,33.385
35.926,36.31,34.917,33.934,33.434,33.368
35.909,36.289,34.9,33.904,33.418,33.353
35.894,36.265,34.881,33.876,33.402,33.341
35.881,36.239000000000004,34.861,33.848,33.385,33.33
35.87,36.215,34.839,33.821999999999996,33.367,33.32
35.863,36.191,34.816,33.798,33.349000000000004,33.312
35.859,36.17,34.792,33.775999999999996,33.330999999999996,33.303000000000004
35.858000000000004,36.150999999999996,34.769,33.757,33.314,33.294000000000004
35.861,36.135999999999996,34.747,33.741,33.298,33.284
35.868,36.123000000000005,34.727,33.727,33.285,33.272
35.876,36.113,34.709,33.717,33.273,33.26
35.885999999999996,36.104,34.691,33.708,33.263000000000005,33.245
35.896,36.098,34.674,33.701,33.255,33.229
35.906,36.093,34.655,33.695,33.25,33.211
35.915,36.089,34.634,33.687,33.246,33.191
35.922,36.085,34.613,33.679,33.246,33.169000000000004
35.928000000000004,36.082,34.59,33.668,33.249,33.145
35.931,36.078,34.564,33.655,33.257,33.122
35.93,36.074,34.538000000000004,33.641999999999996,33.272,33.099000000000004
35.926,36.068000000000005,34.51,33.628,33.296,33.078
35.918,36.061,34.481,33.614000000000004,33.330999999999996,33.058
35.907,36.055,34.453,33.599000000000004,33.379,33.04
35.894,36.048,34.425,33.586,33.444,33.023
35.88,36.04,34.399,33.571999999999996,33.528,33.009
35.865,36.032,34.374,33.559,33.632,32.994
35.85,36.021,34.35,33.546,33.758,32.979
35.836,36.008,34.329,33.534,33.906,32.963
35.823,35.992,34.309,33.525,34.075,32.944
35.811,35.973,34.291,33.52,34.264,32.922
35.799,35.95,34.275,33.516999999999996,34.469,32.897
35.788000000000004,35.923,34.260999999999996,33.516999999999996,34.687,32.868
35.778,35.891999999999996,34.248000000000005,33.519,34.916,32.835
35.768,35.857,34.236999999999995,33.52,35.150999999999996,32.8
35.757,35.817,34.227,33.52,35.391,32.762
35.746,35.774,34.218,33.518,35.632,32.723
35.733000000000004,35.726,34.209,33.513000000000005,35.871,32.684
35.718,35.676,34.201,33.505,36.106,32.646
35.699,35.623000000000005,34.192,33.494,36.332,32.61
35.677,35.569,34.183,33.48,36.547,32.576
35.65,35.515,34.173,33.464,36.748000000000005,32.546
35.62,35.461999999999996,34.161,33.446,36.934,32.518
35.586999999999996,35.411,34.147,33.427,37.104,32.493
35.552,35.364000000000004,34.131,33.408,37.255,32.469
35.516,35.321,34.111999999999995,33.389,37.385,32.446999999999996
35.481,35.283,34.092,33.37,37.494,32.425
35.446,35.251,34.071,33.352,37.580999999999996,32.402
35.412,35.223,34.051,33.333,37.646,32.376999999999995
35.379,35.2,34.032,33.315,37.693000000000005,32.349000000000004
35.347,35.181999999999995,34.016999999999996,33.298,37.722,32.32
35.316,35.167,34.004,33.281,37.736999999999995,32.288000000000004
35.286,35.156,33.995,33.265,37.741,32.255
35.258,35.147,33.989000000000004,33.25,37.736,32.221
35.231,35.141,33.986,33.235,37.725,32.188
35.207,35.135999999999996,33.984,33.222,37.71,32.156
35.184,35.131,33.983000000000004,33.21,37.693000000000005,32.125
35.162,35.126,33.983000000000004,33.201,37.675,32.097
35.141999999999996,35.121,33.983000000000004,33.193000000000005,37.659,32.071999999999996
35.122,35.115,33.983000000000004,33.187,37.644,32.049
35.101,35.109,33.982,33.181999999999995,37.631,32.028
35.08,35.103,33.98,33.177,37.62,32.009
35.056999999999995,35.097,33.978,33.172,37.609,31.991
35.03,35.089,33.976,33.165,37.598,31.975
34.994,35.08,33.974000000000004,33.157,37.586999999999996,31.958000000000002
34.949,35.069,33.971,33.149,37.577,31.941
34.895,35.056999999999995,33.968,33.139,37.568000000000005,31.921999999999997
34.838,35.044000000000004,33.964,33.128,37.562,31.901999999999997
34.779,35.03,33.96,33.115,37.559,31.879
34.722,35.010999999999996,33.955,33.101,37.559,31.855
34.671,34.984,33.951,33.084,37.563,31.828000000000003
34.628,34.95,33.948,33.067,37.569,31.799
34.594,34.911,33.946,33.049,37.578,31.769000000000002
34.57,34.87,33.944,33.031,37.589,31.738000000000003
34.556999999999995,34.828,33.943000000000005,33.016,37.602,31.706
34.552,34.788000000000004,33.94,33.005,37.614000000000004,31.675
34.556,34.751,33.936,32.998000000000005,37.626,31.644000000000002
34.565,34.718,33.93,32.999,37.635999999999996,31.615
34.578,34.689,33.92,33.008,37.643,31.588
34.593,34.665,33.909,33.028,37.644,31.563000000000002
34.607,34.646,33.895,33.062,37.64,31.54
34.62,34.633,33.88,33.111,37.63,31.519000000000002
34.631,34.624,33.865,33.176,37.611999999999995,31.5
34.639,34.619,33.851,33.258,37.588,31.482
34.645,34.615,33.839,33.358000000000004,37.556,31.465
34.648,34.611999999999995,33.83,33.477,37.516,31.45
34.648,34.607,33.826,33.615,37.469,31.435
34.645,34.601,33.828,33.772,37.414,31.421
34.639,34.592,33.836999999999996,33.946999999999996,37.353,31.408
34.628,34.58,33.855,34.138000000000005,37.287,31.394000000000002
34.614000000000004,34.564,33.884,34.344,37.217,31.379
34.596,34.543,33.924,34.56,37.146,31.363000000000003
34.575,34.516999999999996,33.977,34.783,37.076,31.346
34.552,34.486999999999995,34.045,35.008,37.009,31.325
34.527,34.453,34.126999999999995,35.232,36.946999999999996,31.302
34.501999999999995,34.416,34.224000000000004,35.449,36.891,31.276
34.476,34.378,34.334,35.656,36.842,31.248
34.451,34.34,34.455999999999996,35.848,36.801,31.218000000000004
34.428000000000004,34.301,34.588,36.023,36.769,31.188000000000002
34.406,34.263000000000005,34.73,36.177,36.747,31.158
34.385999999999996,34.226,34.876999999999995,36.31,36.733000000000004,31.131
34.369,34.191,35.027,36.421,36.726,31.107
34.354,34.16,35.176,36.508,36.724000000000004,31.088
34.344,34.132,35.323,36.574,36.726,31.073
34.336999999999996,34.107,35.465,36.617,36.73,31.066
34.335,34.085,35.6,36.64,36.734,31.068
34.335,34.066,35.724000000000004,36.644,36.736999999999995,31.08
34.336999999999996,34.049,35.836,36.633,36.74,31.104
34.34,34.032,35.936,36.607,36.742,31.144000000000002
34.343,34.016,36.021,36.569,36.743,31.201999999999998
34.346,34.0,36.094,36.523,36.741,31.281
34.347,33.984,36.152,36.47,36.736999999999995,31.384
34.347,33.967,36.199,36.412,36.73,31.514
34.344,33.949,36.232,36.352,36.719,31.675
34.339,33.929,36.255,36.291,36.704,31.866999999999997
34.33,33.907,36.266999999999996,36.23,36.684,32.095
34.319,33.884,36.268,36.172,36.66,32.358000000000004
34.304,33.859,36.260999999999996,36.116,36.631,32.657
34.287,33.833,36.245,36.064,36.596,32.991
34.266999999999996,33.806,36.221,36.015,36.556999999999995,33.357
34.247,33.777,36.191,35.969,36.513000000000005,33.749
34.226,33.747,36.156,35.925,36.465,34.157
34.205999999999996,33.717,36.117,35.884,36.414,34.573
34.187,33.687,36.077,35.844,36.36,34.992
34.172,33.657,36.035,35.805,36.304,35.409
34.159,33.628,35.994,35.769,36.246,35.82
34.148,33.6,35.952,35.733000000000004,36.187,36.221
34.138000000000005,33.574,35.913000000000004,35.696999999999996,36.126999999999995,36.609
34.129,33.549,35.875,35.661,36.067,36.981
34.121,33.525999999999996,35.839,35.623000000000005,36.004,37.332
34.113,33.506,35.806,35.583,35.941,37.661
34.106,33.488,35.777,35.543,35.878,37.963
34.098,33.473,35.751,35.501999999999995,35.814,38.234
34.09,33.459,35.728,35.461999999999996,35.75,38.474000000000004
34.080999999999996,33.446,35.709,35.42,35.686,38.679
34.071999999999996,33.433,35.691,35.378,35.624,38.848
34.063,33.421,35.677,35.334,35.562,38.983000000000004
34.053000000000004,33.409,35.665,35.29,35.501,39.082
34.045,33.399,35.655,35.246,35.442,39.149
34.036,33.389,35.647,35.203,35.385,39.184
34.03,33.38,35.639,35.16,35.33,39.191
34.024,33.371,35.632,35.118,35.277,39.174
34.02,33.361,35.623000000000005,35.075,35.226,39.137
34.016,33.35,35.613,35.032,35.177,39.082
34.013000000000005,33.338,35.601,34.988,35.13,39.013000000000005
34.009,33.326,35.586999999999996,34.943000000000005,35.083,38.934
34.005,33.313,35.569,34.899,35.038000000000004,38.847
34.001,33.299,35.547,34.855,34.993,38.755
33.998000000000005,33.284,35.521,34.812,34.948,38.661
33.999,33.268,35.491,34.77,34.903,38.567
34.006,33.251999999999995,35.455999999999996,34.73,34.858000000000004,38.475
34.021,33.235,35.419000000000004,34.693000000000005,34.813,38.387
34.049,33.218,35.378,34.658,34.768,38.304
34.093,33.201,35.335,34.626999999999995,34.722,38.226
34.153,33.186,35.29,34.6,34.676,38.155
34.232,33.171,35.245,34.578,34.629,38.089
34.330999999999996,33.158,35.199,34.561,34.580999999999996,38.03
34.45,33.147,35.155,34.547,34.534,37.975
34.586999999999996,33.139,35.111999999999995,34.538000000000004,34.488,37.924
34.742,33.133,35.073,34.531,34.443000000000005,37.876
34.912,33.129,35.036,34.528,34.399,37.83
35.095,33.128,35.003,34.529,34.357,37.786
35.287,33.128,34.974000000000004,34.533,34.317,37.742
35.484,33.13,34.95,34.54,34.278,37.696999999999996
35.684,33.133,34.931,34.551,34.241,37.652
35.883,33.14,34.917,34.565,34.205999999999996,37.604
36.076,33.152,34.906,34.582,34.172,37.555
36.26,33.17,34.9,34.599000000000004,34.14,37.503
36.431999999999995,33.194,34.896,34.618,34.109,37.449
36.589,33.226,34.896,34.635999999999996,34.080999999999996,37.391999999999996
36.731,33.27,34.899,34.654,34.054,37.333
36.854,33.327,34.903,34.671,34.029,37.272
36.958,33.398,34.908,34.687,34.005,37.21
37.044000000000004,33.485,34.915,34.701,33.981,37.146
37.111,33.589,34.921,34.713,33.957,37.080999999999996
37.16,33.709,34.928000000000004,34.723,33.931999999999995,37.015
37.193000000000005,33.843,34.935,34.731,33.906,36.949
37.211,33.991,34.942,34.738,33.878,36.883
37.216,34.149,34.946999999999996,34.746,33.848,36.819
37.211,34.316,34.951,34.751999999999995,33.815,36.757
37.199,34.49,34.954,34.758,33.78,36.696
37.181,34.667,34.955,34.763000000000005,33.742,36.638000000000005
37.159,34.844,34.954,34.769,33.702,36.582
37.135,35.016999999999996,34.951,34.774,33.661,36.53
37.111,35.184,34.944,34.78,33.619,36.48
37.086999999999996,35.34,34.935,34.785,33.577,36.431999999999995
37.063,35.483000000000004,34.925,34.788000000000004,33.533,36.387
37.041,35.611999999999995,34.913000000000004,34.788000000000004,33.489000000000004,36.346
37.021,35.723,34.9,34.784,33.445,36.308
37.001999999999995,35.817,34.888000000000005,34.775,33.399,36.275
36.984,35.893,34.875,34.763000000000005,33.353,36.248000000000005
36.968,35.95,34.861999999999995,34.747,33.306999999999995,36.228
36.951,35.991,34.849000000000004,34.728,33.26,36.215
36.933,36.016999999999996,34.836,34.707,33.214,36.21
36.914,36.03,34.823,34.685,33.169000000000004,36.213
36.891999999999996,36.031,34.81,34.662,33.126999999999995,36.222
36.868,36.023,34.796,34.637,33.086999999999996,36.236999999999995
36.842,36.008,34.781,34.613,33.05,36.257
36.816,35.986,34.766,34.586999999999996,33.015,36.28
36.791,35.961,34.75,34.562,32.983000000000004,36.304
36.766,35.936,34.735,34.538000000000004,32.951,36.328
36.744,35.913000000000004,34.719,34.513000000000005,32.92,36.351
36.723,35.894,34.704,34.489000000000004,32.89,36.371
36.705,35.878,34.689,34.466,32.858000000000004,36.389
36.688,35.865,34.676,34.443000000000005,32.827,36.402
36.672,35.855,34.665,34.419000000000004,32.796,36.412
36.656,35.847,34.654,34.396,32.768,36.417
36.64,35.839,34.641,34.373000000000005,32.747,36.416
36.624,35.832,34.628,34.35,32.734,36.408
36.608000000000004,35.825,34.611999999999995,34.327,32.728,36.393
36.591,35.817,34.595,34.305,32.728,36.369
36.574,35.806999999999995,34.576,34.283,32.731,36.338
36.556,35.794000000000004,34.554,34.262,32.734,36.299
36.534,35.779,34.532,34.241,32.736,36.254
36.509,35.760999999999996,34.508,34.22,32.733000000000004,36.203
36.48,35.74,34.485,34.2,32.724000000000004,36.149
36.446,35.717,34.461999999999996,34.179,32.71,36.092
36.408,35.694,34.441,34.157,32.688,36.034
36.366,35.671,34.421,34.134,32.659,35.976
36.32,35.647,34.403,34.111,32.626,35.918
36.273,35.624,34.387,34.086999999999996,32.588,35.861
36.225,35.602,34.371,34.064,32.547,35.803000000000004
36.177,35.58,34.357,34.042,32.506,35.746
36.131,35.558,34.341,34.021,32.465,35.688
36.088,35.537,34.325,34.001999999999995,32.426,35.629
36.049,35.516,34.308,33.984,32.39,35.569
36.012,35.494,34.29,33.967,32.358000000000004,35.507
35.98,35.47,34.272,33.951,32.329,35.443000000000005
35.954,35.446,34.254,33.935,32.303000000000004,35.378
35.934,35.422,34.238,33.918,32.28,35.311
35.92,35.396,34.222,33.902,32.258,35.242
35.913000000000004,35.369,34.209,33.885999999999996,32.238,35.172
35.91,35.34,34.196999999999996,33.869,32.22,35.101
35.912,35.31,34.188,33.852,32.203,35.029
35.917,35.279,34.18,33.836,32.189,34.955999999999996
35.925,35.245,34.173,33.82,32.176,34.883
35.934,35.211,34.164,33.806,32.165,34.809
35.945,35.176,34.155,33.793,32.156,34.735
35.954,35.141,34.145,33.781,32.149,34.661
35.963,35.105,34.133,33.77,32.141999999999996,34.588
35.97,35.07,34.12,33.759,32.135999999999996,34.516
35.976,35.035,34.107,33.749,32.13,34.445
35.981,35.001999999999995,34.093,33.739000000000004,32.122,34.378
35.983000000000004,34.971,34.079,33.729,32.113,34.314
35.982,34.944,34.067,33.72,32.102,34.253
35.98,34.921,34.055,33.71,32.089,34.196
35.975,34.903,34.046,33.7,32.074,34.144
35.969,34.889,34.038000000000004,33.689,32.056999999999995,34.095
35.961,34.88,34.032,33.679,32.039,34.051
35.954,34.876999999999995,34.028,33.669000000000004,32.022,34.009
35.946999999999996,34.878,34.025,33.659,32.005,33.97
35.94,34.884,34.023,33.65,31.99,33.933
35.933,34.894,34.021,33.641,31.976,33.897
35.926,34.906,34.02,33.632,31.965999999999998,33.861
35.92,34.92,34.019,33.623000000000005,31.959,33.825
35.913000000000004,34.933,34.018,33.614000000000004,31.955,33.787
35.907,34.945,34.016999999999996,33.606,31.955,33.749
35.900999999999996,34.954,34.016999999999996,33.598,31.956999999999997,33.708
35.893,34.961,34.016,33.59,31.962,33.666
35.884,34.963,34.015,33.584,31.97,33.621
35.873000000000005,34.961999999999996,34.013000000000005,33.577,31.98,33.576
35.858000000000004,34.955999999999996,34.01,33.569,31.994,33.53
35.839,34.946,34.006,33.56,32.013000000000005,33.484
35.816,34.931,34.001,33.549,32.039,33.441
35.788000000000004,34.915,33.993,33.537,32.074,33.400999999999996
35.758,34.897,33.985,33.523,32.12,33.366
35.727,34.878,33.975,33.509,32.178000000000004,33.336999999999996
35.695,34.859,33.966,33.494,32.25,33.313
35.662,34.84,33.958,33.48,32.339,33.296
35.631,34.821,33.952,33.466,32.445,33.283
35.599000000000004,34.801,33.945,33.453,32.569,33.273
35.569,34.783,33.939,33.442,32.714,33.265
35.539,34.765,33.933,33.433,32.879,33.258
35.51,34.749,33.926,33.427,33.066,33.251
35.481,34.734,33.918,33.423,33.274,33.243
35.452,34.722,33.909,33.42,33.501999999999995,33.232
35.423,34.711,33.898,33.417,33.747,33.217
35.395,34.704,33.885999999999996,33.416,34.006,33.2
35.366,34.698,33.872,33.416,34.277,33.178000000000004
35.338,34.693000000000005,33.856,33.418,34.555,33.153
35.31,34.688,33.84,33.425,34.835,33.124
35.282,34.681,33.823,33.438,35.111999999999995,33.094
35.253,34.672,33.806,33.459,35.382,33.061
35.223,34.658,33.79,33.489000000000004,35.638000000000005,33.029
35.191,34.64,33.778,33.531,35.878,32.996
35.156,34.618,33.77,33.586999999999996,36.098,32.965
35.12,34.592,33.77,33.659,36.294000000000004,32.936
35.082,34.563,33.779,33.75,36.467,32.91
35.042,34.53,33.801,33.86,36.614000000000004,32.885
35.001999999999995,34.495,33.836,33.988,36.738,32.864000000000004
34.963,34.458,33.888000000000005,34.133,36.84,32.845
34.925,34.418,33.958,34.293,36.921,32.828
34.89,34.376999999999995,34.048,34.467,36.984,32.812
34.857,34.335,34.156,34.652,37.031,32.797
34.827,34.294000000000004,34.282,34.843,37.063,32.783
34.803000000000004,34.253,34.423,35.038000000000004,37.082,32.769
34.782,34.213,34.578,35.233000000000004,37.091,32.755
34.766999999999996,34.174,34.743,35.424,37.09,32.741
34.755,34.138000000000005,34.916,35.607,37.082,32.726
34.747,34.103,35.091,35.779,37.068000000000005,32.71
34.741,34.071,35.266999999999996,35.936,37.049,32.693000000000005
34.736,34.042,35.437,36.075,37.027,32.674
34.729,34.016999999999996,35.6,36.196999999999996,37.003,32.653
34.721,33.995,35.751999999999995,36.302,36.979,32.63
34.71,33.976,35.891,36.387,36.957,32.606
34.696999999999996,33.959,36.013000000000005,36.454,36.938,32.58
34.681999999999995,33.944,36.119,36.504,36.924,32.553000000000004
34.666,33.931,36.208,36.536,36.915,32.525999999999996
34.65,33.921,36.28,36.553000000000004,36.913000000000004,32.498000000000005
34.633,33.912,36.336999999999996,36.555,36.918,32.47
34.617,33.904,36.378,36.545,36.928000000000004,32.443000000000005
34.602,33.898,36.406,36.523,36.943000000000005,32.417
34.586999999999996,33.891999999999996,36.422,36.492,36.961,32.393
34.574,33.885,36.428000000000004,36.454,36.983000000000004,32.371
34.561,33.878,36.426,36.41,37.007,32.35
34.55,33.87,36.417,36.361999999999995,37.033,32.332
34.54,33.861,36.402,36.31,37.06,32.315
34.531,33.849000000000004,36.383,36.257,37.088,32.298
34.525,33.834,36.359,36.204,37.117,32.282
34.519,33.816,36.333,36.150999999999996,37.144,32.266
34.514,33.795,36.304,36.098,37.171,32.248000000000005
34.51,33.773,36.275,36.046,37.196999999999996,32.229
34.505,33.75,36.244,35.995,37.222,32.209
34.499,33.727,36.211999999999996,35.945,37.246,32.187
34.491,33.705,36.18,35.896,37.266999999999996,32.163000000000004
34.483000000000004,33.683,36.149,35.848,37.286,32.138000000000005
34.473,33.662,36.118,35.802,37.3,32.111
34.463,33.641,36.088,35.758,37.306999999999995,32.083
34.452,33.622,36.059,35.716,37.306999999999995,32.055
34.441,33.605,36.033,35.676,37.299,32.027
34.431,33.589,36.008,35.638000000000005,37.284,31.999000000000002
34.42,33.576,35.986,35.601,37.262,31.971999999999998
34.409,33.564,35.966,35.565,37.232,31.948
34.4,33.554,35.949,35.53,37.196999999999996,31.926
34.391,33.545,35.935,35.495,37.156,31.906999999999996
34.384,33.537,35.924,35.458,37.111,31.89
34.379,33.53,35.915,35.418,37.063,31.875
34.376,33.523,35.908,35.374,37.015,31.863000000000003
34.374,33.516,35.903,35.326,36.968,31.851999999999997
34.372,33.509,35.9,35.275999999999996,36.923,31.842
34.37,33.5,35.896,35.224000000000004,36.882,31.834
34.367,33.491,35.891,35.172,36.845,31.826999999999998
34.361999999999995,33.481,35.885,35.12,36.812,31.82
34.355,33.472,35.876,35.07,36.781,31.813000000000002
34.347,33.461999999999996,35.866,35.021,36.753,31.807
34.339,33.453,35.852,34.974000000000004,36.727,31.8
34.330999999999996,33.446999999999996,35.835,34.93,36.703,31.791
34.323,33.444,35.814,34.889,36.681,31.781999999999996
34.316,33.448,35.789,34.851,36.661,31.77
34.31,33.46,35.759,34.815,36.643,31.755
34.303000000000004,33.484,35.725,34.782,36.626999999999995,31.738000000000003
34.295,33.523,35.687,34.749,36.613,31.719
34.286,33.576,35.646,34.718,36.6,31.699
34.274,33.646,35.602,34.687,36.589,31.679000000000002
34.26,33.732,35.556999999999995,34.658,36.580999999999996,31.66
34.242,33.835,35.512,34.63,36.575,31.642
34.222,33.953,35.468,34.604,36.571999999999996,31.625999999999998
34.198,34.084,35.428000000000004,34.580999999999996,36.57,31.613000000000003
34.17,34.227,35.391,34.56,36.568000000000005,31.601999999999997
34.139,34.378,35.358000000000004,34.542,36.566,31.594
34.106,34.535,35.33,34.527,36.561,31.587
34.07,34.694,35.308,34.516999999999996,36.555,31.581999999999997
34.033,34.853,35.29,34.51,36.546,31.578000000000003
33.995,35.009,35.275999999999996,34.507,36.536,31.573
33.957,35.16,35.266,34.507,36.524,31.566999999999997
33.92,35.304,35.257,34.510999999999996,36.510999999999996,31.559
33.885,35.439,35.25,34.516999999999996,36.497,31.548000000000002
33.852,35.564,35.245,34.525999999999996,36.481,31.535999999999998
33.82,35.678000000000004,35.241,34.538000000000004,36.463,31.521
33.791,35.78,35.239000000000004,34.552,36.442,31.504
33.765,35.87,35.239000000000004,34.568000000000005,36.419000000000004,31.486
33.742,35.946999999999996,35.241,34.586,36.394,31.467
33.722,36.012,35.243,34.605,36.366,31.449
33.705999999999996,36.064,35.245,34.623000000000005,36.336,31.434
33.693000000000005,36.104,35.248000000000005,34.641,36.305,31.421999999999997
33.681999999999995,36.132,35.249,34.657,36.271,31.415
33.674,36.149,35.248000000000005,34.672,36.235,31.413
33.67,36.155,35.246,34.684,36.196999999999996,31.418000000000003
33.67,36.153,35.242,34.694,36.158,31.432
33.675,36.144,35.236999999999995,34.703,36.118,31.456
33.687,36.128,35.232,34.71,36.079,31.491
33.708,36.108000000000004,35.226,34.716,36.042,31.539
33.741,36.082,35.22,34.72,36.006,31.601
33.787,36.054,35.215,34.722,35.972,31.680999999999997
33.848,36.023,35.21,34.723,35.938,31.781
33.926,35.991,35.205,34.722,35.905,31.906
34.022,35.96,35.201,34.721,35.871,32.06
34.137,35.931,35.196,34.718,35.836999999999996,32.246
34.269,35.905,35.19,34.714,35.803000000000004,32.465
34.417,35.881,35.183,34.705999999999996,35.769,32.719
34.579,35.86,35.173,34.696999999999996,35.736,33.007
34.754,35.844,35.159,34.684,35.705,33.327
34.937,35.830999999999996,35.141999999999996,34.67,35.675,33.677
35.128,35.823,35.121,34.655,35.645,34.053000000000004
35.321999999999996,35.818000000000005,35.098,34.639,35.617,34.45
35.516999999999996,35.815,35.075,34.622,35.59,34.861999999999995
35.709,35.813,35.054,34.603,35.564,35.281
35.896,35.812,35.035,34.580999999999996,35.538000000000004,35.701
36.075,35.81,35.016999999999996,34.558,35.514,36.115
36.243,35.806999999999995,35.0,34.535,35.491,36.516
36.398,35.801,34.983000000000004,34.510999999999996,35.468,36.898
36.538000000000004,35.792,34.967,34.488,35.446,37.255
36.662,35.78,34.949,34.465,35.424,37.582
36.77,35.763000000000005,34.931,34.442,35.403,37.876999999999995
36.861,35.74,34.911,34.42,35.383,38.135999999999996
36.936,35.713,34.891,34.397,35.365,38.358000000000004
36.993,35.681999999999995,34.871,34.373000000000005,35.351,38.542
37.034,35.646,34.85,34.35,35.34,38.69
37.059,35.607,34.830999999999996,34.327,35.333,38.804
37.07,35.565,34.812,34.304,35.328,38.884
37.068000000000005,35.52,34.794000000000004,34.282,35.325,38.935
37.055,35.474000000000004,34.775999999999996,34.26,35.323,38.959
37.034,35.426,34.758,34.238,35.32,38.96
37.007,35.378,34.74,34.217,35.317,38.941
36.976,35.330999999999996,34.72,34.196,35.311,38.906
36.943000000000005,35.286,34.699,34.175,35.303000000000004,38.856
36.909,35.245,34.678000000000004,34.155,35.29,38.796
36.875,35.207,34.656,34.135999999999996,35.274,38.729
36.843,35.173,34.635,34.116,35.254,38.655
36.812,35.141999999999996,34.614000000000004,34.098,35.229,38.579
36.783,35.115,34.594,34.079,35.2,38.501
36.757,35.091,34.578,34.061,35.166,38.421
36.735,35.071,34.564,34.042,35.13,38.342
36.716,35.054,34.553000000000004,34.023,35.092,38.262
36.701,35.04,34.544000000000004,34.004,35.053000000000004,38.183
36.689,35.03,34.538000000000004,33.984,35.013000000000005,38.105
36.679,35.022,34.533,33.964,34.974000000000004,38.028
36.669000000000004,35.016,34.527,33.944,34.935,37.953
36.658,35.010999999999996,34.52,33.923,34.894,37.881
36.646,35.008,34.509,33.903,34.852,37.812
36.631,35.006,34.496,33.887,34.808,37.745
36.614000000000004,35.005,34.479,33.874,34.763000000000005,37.681999999999995
36.593,35.005,34.461,33.863,34.717,37.621
36.57,35.005,34.441,33.855,34.671,37.562
36.545,35.005,34.42,33.848,34.626999999999995,37.504
36.518,35.005,34.399,33.842,34.584,37.448
36.49,35.004,34.379,33.835,34.544000000000004,37.391999999999996
36.461,35.001999999999995,34.36,33.828,34.506,37.336999999999996
36.431999999999995,34.999,34.343,33.818000000000005,34.47,37.282
36.400999999999996,34.994,34.326,33.806999999999995,34.437,37.227
36.368,34.988,34.309,33.794000000000004,34.405,37.173
36.335,34.98,34.291,33.778,34.374,37.119
36.301,34.972,34.272,33.759,34.344,37.064
36.266,34.964,34.253,33.739000000000004,34.315,37.009
36.23,34.957,34.233000000000004,33.717,34.286,36.953
36.194,34.95,34.214,33.693000000000005,34.255,36.894
36.156,34.943000000000005,34.195,33.669000000000004,34.223,36.833
36.117,34.936,34.178000000000004,33.645,34.189,36.769
36.077,34.929,34.162,33.621,34.152,36.704
36.036,34.92,34.149,33.597,34.113,36.638000000000005
35.995,34.911,34.138000000000005,33.576,34.073,36.571
35.952,34.902,34.131,33.558,34.033,36.505
35.908,34.891,34.126,33.543,33.993,36.442
35.865,34.878,34.122,33.532,33.953,36.382
35.821,34.864000000000004,34.12,33.524,33.913000000000004,36.325
35.777,34.848,34.118,33.516999999999996,33.873000000000005,36.273
35.734,34.829,34.116,33.512,33.830999999999996,36.227
35.693000000000005,34.809,34.114000000000004,33.508,33.788000000000004,36.187
35.655,34.787,34.111,33.503,33.743,36.152
35.62,34.764,34.109,33.496,33.696,36.125
35.59,34.739000000000004,34.106,33.486,33.65,36.105
35.565,34.713,34.105,33.475,33.605,36.094
35.546,34.686,34.104,33.464,33.563,36.091
35.533,34.658,34.105,33.452,33.525,36.097
35.525999999999996,34.631,34.106,33.44,33.491,36.113
35.524,34.603,34.106,33.43,33.461,36.137
35.528,34.575,34.106,33.42,33.434,36.168
35.538000000000004,34.546,34.105,33.413000000000004,33.41,36.205
35.554,34.516,34.104,33.407,33.388000000000005,36.246
35.574,34.486999999999995,34.102,33.403,33.369,36.289
35.598,34.457,34.098,33.4,33.351,36.330999999999996
35.624,34.426,34.094,33.398,33.336,36.372
35.650999999999996,34.395,34.089,33.397,33.321,36.409
35.676,34.365,34.084,33.397,33.308,36.44
35.7,34.334,34.078,33.397,33.296,36.466
35.72,34.304,34.073,33.398,33.285,36.486
35.735,34.275999999999996,34.068000000000005,33.4,33.275,36.498000000000005
35.744,34.25,34.063,33.404,33.266,36.503
35.746,34.225,34.058,33.409,33.259,36.5
35.742,34.202,34.053000000000004,33.418,33.253,36.49
35.732,34.181999999999995,34.048,33.431,33.248000000000005,36.473
35.718,34.162,34.043,33.452,33.245,36.448
35.701,34.143,34.036,33.482,33.241,36.417
35.681999999999995,34.125,34.029,33.525,33.238,36.381
35.663000000000004,34.107,34.02,33.582,33.234,36.339
35.645,34.09,34.008,33.656,33.229,36.293
35.629,34.071999999999996,33.995,33.749,33.224000000000004,36.243
35.614000000000004,34.055,33.979,33.861999999999995,33.219,36.192
35.601,34.037,33.963,33.995,33.215,36.138000000000005
35.59,34.016999999999996,33.946,34.147,33.213,36.083
35.580999999999996,33.996,33.929,34.318000000000005,33.211999999999996,36.028
35.574,33.972,33.914,34.503,33.211999999999996,35.972
35.568000000000005,33.946999999999996,33.902,34.7,33.211999999999996,35.916
35.562,33.922,33.897,34.905,33.213,35.859
35.556,33.896,33.899,35.113,33.211999999999996,35.801
35.548,33.872,33.91,35.321999999999996,33.21,35.742
35.538000000000004,33.848,33.931,35.529,33.205,35.68
35.524,33.824,33.963,35.729,33.199,35.617
35.507,33.802,34.007,35.919000000000004,33.191,35.55
35.486999999999995,33.782,34.062,36.096,33.181999999999995,35.481
35.464,33.763000000000005,34.131,36.259,33.173,35.408
35.438,33.746,34.211999999999996,36.404,33.164,35.333
35.41,33.731,34.306999999999995,36.53,33.156,35.254
35.379,33.717,34.415,36.637,33.149,35.174
35.347,33.704,34.536,36.725,33.143,35.093
35.314,33.692,34.668,36.793,33.139,35.01
35.281,33.683,34.811,36.843,33.135999999999996,34.929
35.247,33.675,34.961999999999996,36.875,33.135,34.848
35.214,33.669000000000004,35.12,36.89,33.134,34.77
35.181999999999995,33.664,35.281,36.891,33.133,34.695
35.152,33.659,35.442,36.879,33.132,34.623000000000005
35.124,33.654,35.602,36.858000000000004,33.13,34.554
35.098,33.648,35.757,36.83,33.126,34.488
35.074,33.641999999999996,35.905,36.798,33.121,34.424
35.051,33.635999999999996,36.045,36.762,33.113,34.361999999999995
35.027,33.629,36.175,36.724000000000004,33.104,34.302
35.001,33.622,36.294000000000004,36.684,33.092,34.244
34.973,33.613,36.400999999999996,36.644,33.079,34.187
34.944,33.604,36.493,36.604,33.063,34.132
34.913000000000004,33.594,36.571999999999996,36.563,33.047,34.079
34.882,33.584,36.637,36.523,33.029,34.025999999999996
34.851,33.575,36.687,36.483000000000004,33.009,33.974000000000004
34.82,33.565,36.723,36.444,32.986,33.922
34.791,33.555,36.746,36.405,32.961999999999996,33.87
34.764,33.544000000000004,36.755,36.367,32.935,33.819
34.739000000000004,33.532,36.753,36.33,32.906,33.768
34.717,33.519,36.74,36.294000000000004,32.875,33.718
34.696,33.505,36.718,36.26,32.844,33.67
34.678000000000004,33.491,36.688,36.228,32.813,33.624
34.66,33.476,36.650999999999996,36.196,32.783,33.579
34.644,33.46,36.608000000000004,36.162,32.756,33.535
34.626999999999995,33.443000000000005,36.561,36.126999999999995,32.732,33.493
34.61,33.425,36.510999999999996,36.09,32.713,33.452
34.59,33.406,36.461,36.052,32.7,33.414
34.567,33.388000000000005,36.41,36.012,32.694,33.378
34.54,33.371,36.36,35.971,32.698,33.344
34.51,33.358000000000004,36.314,35.929,32.714,33.315
34.479,33.35,36.273,35.888000000000005,32.743,33.288000000000004
34.446999999999996,33.348,36.238,35.848,32.788000000000004,33.265
34.416,33.356,36.209,35.809,32.85,33.244
34.388000000000005,33.375,36.185,35.772,32.931999999999995,33.226
34.361999999999995,33.408,36.167,35.738,33.035,33.208
34.341,33.457,36.152,35.705999999999996,33.16,33.19
34.324,33.523,36.141,35.677,33.308,33.17
34.311,33.608000000000004,36.131,35.648,33.479,33.148
34.302,33.711,36.122,35.619,33.672,33.123000000000005
34.296,33.832,36.111999999999995,35.589,33.887,33.094
34.294000000000004,33.97,36.102,35.556999999999995,34.121,33.061
34.293,34.122,36.09,35.523,34.372,33.025
34.294000000000004,34.287,36.077,35.486,34.635999999999996,32.986
34.296,34.461999999999996,36.063,35.446999999999996,34.906,32.946
34.298,34.643,36.048,35.406,35.179,32.906
34.298,34.827,36.03,35.364000000000004,35.449,32.868
34.295,35.012,36.010999999999996,35.321999999999996,35.713,32.833
34.288000000000004,35.193000000000005,35.989000000000004,35.28,35.964,32.803000000000004
34.278,35.37,35.964,35.24,36.201,32.778
34.263000000000005,35.54,35.936,35.203,36.42,32.759
34.246,35.7,35.904,35.169000000000004,36.617,32.745
34.227,35.849000000000004,35.868,35.139,36.793,32.736
34.205999999999996,35.985,35.829,35.113,36.945,32.73
34.187,36.105,35.787,35.092,37.075,32.726
34.168,36.21,35.744,35.074,37.181999999999995,32.722
34.150999999999996,36.299,35.699,35.059,37.269,32.717
34.139,36.374,35.653,35.047,37.338,32.71
34.135999999999996,36.436,35.605,35.038000000000004,37.39,32.699
34.139,36.485,35.558,35.031,37.427,32.684
34.15,36.522,35.510999999999996,35.025999999999996,37.451,32.664
34.167,36.548,35.464,35.023,37.464,32.639
34.187,36.564,35.418,35.021,37.467,32.609
34.209,36.571,35.372,35.021,37.463,32.576
34.229,36.57,35.328,35.022,37.451,32.541
34.245,36.563,35.285,35.024,37.434,32.505
34.255,36.55,35.244,35.029,37.412,32.47
34.258,36.533,35.207,35.034,37.389,32.436
34.253,36.510999999999996,35.173,35.04,37.365,32.405
34.241,36.486999999999995,35.143,35.045,37.342,32.376999999999995
34.223,36.461,35.118,35.051,37.323,32.351
34.202,36.435,35.098,35.056,37.308,32.329
34.179,36.41,35.082,35.06,37.297,32.311
34.155,36.385999999999996,35.07,35.063,37.29,32.296
34.132,36.365,35.061,35.067,37.288000000000004,32.283
34.11,36.346,35.054,35.071,37.289,32.272
34.09,36.329,35.048,35.075,37.294000000000004,32.26
34.071999999999996,36.316,35.044000000000004,35.078,37.302,32.249
34.054,36.305,35.04,35.08,37.313,32.236
34.038000000000004,36.299,35.038000000000004,35.079,37.326,32.221
34.022,36.294000000000004,35.037,35.077,37.341,32.201
34.006,36.292,35.036,35.071999999999996,37.359,32.178000000000004
33.99,36.292,35.036,35.065,37.376999999999995,32.15
33.973,36.291,35.038000000000004,35.054,37.396,32.119
33.955,36.291,35.039,35.041,37.416,32.083
33.937,36.289,35.041,35.025,37.437,32.046
33.918,36.286,35.042,35.007,37.458,32.007
33.899,36.281,35.042,34.986,37.478,31.968000000000004
33.881,36.273,35.04,34.964,37.497,31.930999999999997
33.865,36.260999999999996,35.037,34.941,37.514,31.896
33.85,36.245,35.033,34.917,37.527,31.865
33.839,36.224000000000004,35.028,34.894,37.535,31.838
33.832,36.2,35.023,34.871,37.538000000000004,31.814
33.830999999999996,36.172,35.016999999999996,34.848,37.534,31.795
33.836,36.141,35.008,34.824,37.525,31.779
33.849000000000004,36.108000000000004,34.998000000000005,34.801,37.508,31.765
33.873000000000005,36.073,34.986,34.775999999999996,37.486,31.753
33.908,36.037,34.973,34.751999999999995,37.458,31.741
33.958,36.0,34.958,34.726,37.425,31.726999999999997
34.024,35.961999999999996,34.942,34.698,37.387,31.713
34.108000000000004,35.924,34.925,34.663000000000004,37.346,31.695999999999998
34.211999999999996,35.884,34.907,34.62,37.301,31.677
34.334,35.842,34.888000000000005,34.57,37.253,31.656
34.474000000000004,35.799,34.869,34.516,37.204,31.633000000000003
34.63,35.755,34.848,34.461,37.154,31.608
34.799,35.711,34.827,34.408,37.104,31.581999999999997
34.978,35.667,34.806999999999995,34.359,37.056,31.557
35.164,35.626,34.787,34.316,37.010999999999996,31.531999999999996
35.353,35.586,34.768,34.28,36.971,31.509
35.542,35.549,34.75,34.251999999999995,36.935,31.486
35.73,35.515,34.733000000000004,34.232,36.905,31.465999999999998
35.912,35.484,34.717,34.219,36.882,31.445999999999998
36.086,35.455999999999996,34.7,34.211,36.867,31.427
36.25,35.431999999999995,34.683,34.207,36.858000000000004,31.408
36.402,35.412,34.665,34.207,36.855,31.39
36.539,35.396,34.646,34.208,36.858000000000004,31.372
36.661,35.384,34.625,34.21,36.863,31.355
36.768,35.375,34.603,34.211999999999996,36.872,31.337
36.858000000000004,35.368,34.58,34.213,36.881,31.320999999999998
36.934,35.364000000000004,34.556,34.213,36.891,31.305
36.995,35.36,34.532,34.21,36.9,31.289
37.042,35.358000000000004,34.508,34.205,36.908,31.275
37.078,35.355,34.485,34.196999999999996,36.914,31.261
37.103,35.352,34.464,34.187,36.918,31.247
37.117,35.35,34.446,34.175,36.921,31.234
37.122,35.346,34.431,34.161,36.921,31.223000000000003
37.12,35.341,34.418,34.146,36.919000000000004,31.212
37.111,35.335,34.406,34.13,36.914,31.203000000000003
37.096,35.326,34.395,34.111999999999995,36.908,31.197
37.078,35.314,34.385,34.094,36.898,31.193
37.056,35.301,34.375,34.075,36.885999999999996,31.194000000000003
37.031,35.285,34.365,34.055,36.871,31.2
37.005,35.268,34.355,34.035,36.852,31.213
36.977,35.251,34.345,34.016,36.828,31.238000000000003
36.946999999999996,35.234,34.334,33.998000000000005,36.8,31.278000000000002
36.917,35.217,34.323,33.981,36.766999999999996,31.337
36.887,35.202,34.311,33.964,36.729,31.418000000000003
36.856,35.186,34.3,33.946999999999996,36.687,31.528000000000002
36.825,35.172,34.288000000000004,33.93,36.641999999999996,31.669
36.796,35.157,34.275,33.912,36.594,31.844
36.769,35.141999999999996,34.26,33.894,36.545,32.058
36.743,35.126,34.243,33.876,36.495,32.309
36.72,35.11,34.225,33.857,36.446,32.599000000000004
36.699,35.092,34.205999999999996,33.836999999999996,36.398,32.924
36.68,35.071999999999996,34.187,33.816,36.352,33.282
36.663000000000004,35.052,34.168,33.794000000000004,36.306,33.669000000000004
36.646,35.03,34.15,33.773,36.26,34.078
36.631,35.006,34.132,33.753,36.213,34.505
36.618,34.98,34.115,33.736,36.164,34.942
36.605,34.954,34.1,33.721,36.114000000000004,35.383
36.593,34.929,34.086,33.708,36.063,35.823
36.58,34.904,34.074,33.698,36.010999999999996,36.254
36.565,34.88,34.064,33.689,35.958,36.672
36.548,34.856,34.056999999999995,33.681999999999995,35.905,37.071
36.528,34.833,34.052,33.676,35.853,37.446
36.503,34.809,34.048,33.671,35.803000000000004,37.795
36.475,34.784,34.046,33.666,35.755,38.114000000000004
36.444,34.759,34.044000000000004,33.661,35.709,38.402
36.411,34.734,34.041,33.655,35.667,38.656
36.376999999999995,34.709,34.038000000000004,33.647,35.626999999999995,38.876999999999995
36.343,34.684,34.033,33.637,35.59,39.065
36.31,34.659,34.025999999999996,33.626999999999995,35.555,39.222
36.277,34.634,34.016999999999996,33.616,35.52,39.348
36.245,34.609,34.005,33.606,35.485,39.445
36.213,34.585,33.991,33.597,35.449,39.516999999999996
36.181,34.56,33.975,33.589,35.412,39.565
36.148,34.536,33.958,33.580999999999996,35.374,39.593
36.115,34.512,33.941,33.573,35.335,39.602
36.082,34.488,33.926,33.565,35.296,39.593
36.052,34.465,33.912,33.556,35.258,39.568000000000005
36.023,34.443000000000005,33.900999999999996,33.547,35.221,39.53
35.998000000000005,34.422,33.891999999999996,33.539,35.185,39.481
35.976,34.403,33.885,33.531,35.152,39.422
35.955999999999996,34.384,33.881,33.525999999999996,35.12,39.357
35.939,34.367,33.879,33.524,35.09,39.287
35.924,34.35,33.878,33.527,35.061,39.214
35.912,34.333,33.878,33.537,35.033,39.141999999999996
35.903,34.315,33.878,33.556999999999995,35.005,39.073
35.897,34.296,33.879,33.59,34.975,39.006
35.893,34.275,33.879,33.638000000000005,34.944,38.944
35.891999999999996,34.253,33.876999999999995,33.703,34.91,38.887
35.893,34.23,33.875,33.786,34.874,38.834
35.896,34.204,33.87,33.889,34.836999999999996,38.786
35.900999999999996,34.178000000000004,33.864000000000004,34.012,34.8,38.743
35.906,34.15,33.857,34.154,34.764,38.705
35.912,34.124,33.848,34.314,34.73,38.673
35.919000000000004,34.099000000000004,33.838,34.491,34.699,38.646
35.927,34.075,33.828,34.683,34.671,38.622
35.935,34.054,33.818000000000005,34.885,34.646,38.601
35.945,34.036,33.808,35.094,34.623000000000005,38.582
35.954,34.018,33.8,35.306,34.602,38.563
35.963,34.003,33.794000000000004,35.518,34.58,38.543
35.97,33.988,33.789,35.725,34.559,38.519
35.974000000000004,33.975,33.785,35.924,34.538000000000004,38.491
35.976,33.963,33.783,36.113,34.516,38.457
35.973,33.953,33.783,36.288000000000004,34.494,38.417
35.968,33.944,33.785,36.446,34.472,38.371
35.959,33.937,33.788000000000004,36.588,34.452,38.317
35.948,33.93,33.791,36.71,34.433,38.257
35.936,33.924,33.794000000000004,36.814,34.415,38.191
35.922,33.918,33.796,36.897,34.398,38.121
35.907,33.911,33.798,36.963,34.381,38.046
35.891,33.904,33.799,37.01,34.365,37.969
35.872,33.896,33.798,37.042,34.348,37.89
35.852,33.887,33.796,37.058,34.329,37.81
35.830999999999996,33.876999999999995,33.794000000000004,37.061,34.308,37.73
35.808,33.865,33.792,37.053000000000004,34.285,37.650999999999996
35.786,33.852,33.789,37.036,34.259,37.573
35.763000000000005,33.838,33.788000000000004,37.012,34.231,37.499
35.741,33.823,33.787,36.981,34.202,37.428000000000004
35.718,33.806999999999995,33.788000000000004,36.946,34.173,37.363
35.695,33.79,33.792,36.906,34.145,37.305
35.67,33.773,33.798,36.864000000000004,34.119,37.253
35.645,33.756,33.806,36.82,34.096,37.208
35.617,33.738,33.816,36.775999999999996,34.075,37.169000000000004
35.588,33.72,33.829,36.732,34.055,37.135
35.556,33.703,33.843,36.689,34.037,37.106
35.523,33.685,33.86,36.649,34.016999999999996,37.08
35.489000000000004,33.669000000000004,33.878,36.611999999999995,33.995,37.056
35.453,33.654,33.899,36.577,33.971,37.034
35.415,33.641999999999996,33.922,36.544000000000004,33.944,37.015
35.376999999999995,33.633,33.949,36.513000000000005,33.915,36.997
35.336999999999996,33.629,33.979,36.483000000000004,33.884,36.981
35.296,33.628,34.014,36.454,33.855,36.968
35.255,33.633,34.056,36.426,33.826,36.957
35.213,33.643,34.107,36.399,33.799,36.95
35.171,33.661,34.169000000000004,36.372,33.774,36.944
35.13,33.686,34.244,36.344,33.751,36.939
35.089,33.722,34.334,36.316,33.731,36.935
35.05,33.771,34.44,36.287,33.713,36.931999999999995
35.013000000000005,33.832,34.563,36.257,33.696,36.927
34.977,33.908,34.704,36.225,33.68,36.922
34.943000000000005,33.998000000000005,34.859,36.192,33.663000000000004,36.916
34.911,34.103,35.025999999999996,36.157,33.645,36.909
34.881,34.222,35.203,36.122,33.625,36.9
34.853,34.355,35.385999999999996,36.084,33.604,36.89
34.826,34.499,35.571,36.045,33.58,36.876999999999995
34.801,34.653,35.755,36.006,33.556,36.861
34.777,34.814,35.935,35.969,33.531,36.842
34.755,34.98,36.106,35.931999999999995,33.506,36.819
34.734,35.15,36.266999999999996,35.897,33.483000000000004,36.791
34.711999999999996,35.321999999999996,36.416,35.861,33.46,36.756
34.69,35.493,36.55,35.825,33.44,36.716
34.666,35.661,36.667,35.788000000000004,33.42,36.669000000000004
34.641999999999996,35.823,36.765,35.75,33.4,36.616
34.618,35.978,36.844,35.709,33.381,36.556999999999995
34.594,36.123000000000005,36.904,35.668,33.361,36.493
34.57,36.256,36.944,35.625,33.34,36.424
34.548,36.375,36.966,35.580999999999996,33.319,36.352
34.528,36.478,36.972,35.538000000000004,33.298,36.278
34.509,36.566,36.964,35.495,33.275999999999996,36.203
34.491,36.635999999999996,36.943000000000005,35.454,33.254,36.126999999999995
34.474000000000004,36.689,36.914,35.415,33.233000000000004,36.052
34.458,36.723,36.876999999999995,35.379,33.214,35.977
34.442,36.74,36.836,35.347,33.196,35.904
34.425,36.741,36.792,35.319,33.179,35.832
34.407,36.729,36.747,35.295,33.164,35.763000000000005
34.387,36.705999999999996,36.702,35.274,33.15,35.694
34.367,36.675,36.658,35.258,33.137,35.626999999999995
34.346,36.639,36.616,35.246,33.126,35.561
34.324,36.599000000000004,36.577,35.238,33.115,35.495
34.303000000000004,36.559,36.54,35.234,33.104,35.43
34.282,36.521,36.507,35.235,33.093,35.364000000000004
34.262,36.486,36.478,35.238,33.079,35.298
34.243,36.455,36.455,35.244,33.064,35.23
34.227,36.429,36.437,35.251999999999995,33.047,35.159
34.211999999999996,36.408,36.423,35.26,33.029,35.086999999999996
34.2,36.391999999999996,36.413000000000004,35.27,33.01,35.013000000000005
34.189,36.379,36.404,35.281,32.992,34.938
34.179,36.369,36.397,35.292,32.974000000000004,34.864000000000004
34.171,36.361,36.39,35.302,32.958,34.792
34.164,36.353,36.382,35.312,32.943000000000005,34.721
34.157,36.344,36.372,35.32,32.929,34.652
34.15,36.333,36.36,35.327,32.915,34.586999999999996
34.143,36.32,36.347,35.330999999999996,32.902,34.524
34.135,36.305,36.330999999999996,35.333,32.888000000000005,34.466
34.126,36.287,36.315,35.332,32.874,34.411
34.117,36.268,36.298,35.33,32.86,34.36
34.106,36.248000000000005,36.279,35.325,32.845,34.311
34.094,36.226,36.26,35.317,32.832,34.266
34.08,36.205,36.239000000000004,35.308,32.819,34.223
34.063,36.184,36.215,35.296,32.808,34.181
34.046,36.163000000000004,36.188,35.283,32.799,34.139
34.029,36.141999999999996,36.157,35.27,32.793,34.098
34.012,36.122,36.122,35.256,32.792,34.056999999999995
33.997,36.103,36.085,35.243,32.797,34.015
33.985,36.085,36.044000000000004,35.23,32.809,33.971
33.975,36.066,36.003,35.215,32.830999999999996,33.926
33.966,36.047,35.963,35.199,32.865,33.88
33.96,36.027,35.923,35.18,32.913000000000004,33.832
33.955,36.004,35.884,35.16,32.976,33.784
33.95,35.978,35.845,35.137,33.056999999999995,33.735
33.946,35.949,35.808,35.113,33.158,33.689
33.94,35.916,35.772,35.086999999999996,33.28,33.646
33.933,35.88,35.738,35.06,33.424,33.607
33.924,35.84,35.705999999999996,35.033,33.59,33.571999999999996
33.913000000000004,35.796,35.677,35.005,33.78,33.541
33.900999999999996,35.749,35.649,34.978,33.99,33.515
33.887,35.699,35.624,34.951,34.221,33.49
33.873000000000005,35.649,35.602,34.926,34.468,33.468
33.859,35.6,35.584,34.900999999999996,34.729,33.446
33.845,35.555,35.569,34.876999999999995,34.997,33.425
33.834,35.512,35.558,34.853,35.269,33.404
33.825,35.475,35.551,34.829,35.54,33.383
33.819,35.442,35.547,34.805,35.805,33.364000000000004
33.816,35.416,35.545,34.78,36.06,33.345
33.815,35.397,35.544000000000004,34.755,36.301,33.326
33.815,35.383,35.543,34.73,36.523,33.308
33.815,35.375,35.542,34.705999999999996,36.726,33.29
33.812,35.371,35.54,34.681999999999995,36.906,33.271
33.806999999999995,35.37,35.538000000000004,34.659,37.063,33.251999999999995
33.799,35.37,35.536,34.635,37.198,33.232
33.788000000000004,35.371,35.535,34.611999999999995,37.31,33.211999999999996
33.775999999999996,35.372,35.536,34.588,37.402,33.19
33.762,35.372,35.537,34.565,37.474000000000004,33.167
33.747,35.37,35.539,34.541,37.529,33.143
33.734,35.366,35.54,34.515,37.568000000000005,33.117
33.723,35.359,35.541,34.486999999999995,37.592,33.089
33.715,35.35,35.541,34.459,37.603,33.061
33.711999999999996,35.339,35.54,34.431,37.603,33.032
33.716,35.326,35.537,34.402,37.594,33.004
33.729,35.313,35.532,34.374,37.578,32.977
33.753,35.298,35.525,34.347,37.556999999999995,32.951
33.791,35.282,35.516,34.321,37.532,32.928000000000004
33.844,35.265,35.505,34.296,37.506,32.906
33.915,35.247,35.494,34.272,37.479,32.885999999999996
34.003,35.229,35.482,34.251,37.454,32.868
34.109,35.211,35.469,34.232,37.43,32.85
34.233000000000004,35.192,35.455,34.214,37.409,32.832
34.376,35.174,35.442,34.199,37.391,32.812
34.536,35.156,35.428000000000004,34.184,37.375,32.791
34.714,35.139,35.414,34.172,37.363,32.766
34.906,35.12,35.399,34.16,37.353,32.738
35.111999999999995,35.101,35.384,34.148,37.344,32.708
35.327,35.080999999999996,35.369,34.137,37.336,32.677
35.548,35.06,35.354,34.125,37.33,32.645
35.772,35.04,35.339,34.113,37.325,32.611999999999995
35.994,35.019,35.324,34.101,37.321,32.58
36.211,34.999,35.309,34.088,37.319,32.549
36.418,34.978,35.294000000000004,34.074,37.318000000000005,32.518
36.613,34.957,35.278,34.059,37.319,32.49
36.792,34.935,35.264,34.042,37.32,32.463
36.957,34.912,35.249,34.025,37.321,32.44
37.103,34.887,35.235,34.009,37.321999999999996,32.419000000000004
37.232,34.861,35.22,33.993,37.321999999999996,32.4
37.341,34.833,35.203,33.977,37.319,32.384
37.431,34.804,35.184,33.961999999999996,37.314,32.368
37.501999999999995,34.774,35.163000000000004,33.949,37.305,32.354
37.555,34.743,35.14,33.937,37.292,32.339
37.59,34.711,35.116,33.925,37.275,32.323
37.61,34.679,35.093,33.916,37.254,32.305
37.616,34.647,35.07,33.907,37.23,32.283
37.611,34.615,35.047,33.9,37.202,32.259
37.596,34.584,35.025999999999996,33.893,37.171,32.23
37.571,34.553000000000004,35.005,33.885999999999996,37.135999999999996,32.199
37.537,34.522,34.985,33.879,37.099000000000004,32.165
37.493,34.494,34.965,33.872,37.058,32.129
37.444,34.467,34.946999999999996,33.865,37.013000000000005,32.092
37.39,34.443000000000005,34.929,33.858000000000004,36.966,32.056
37.336,34.42,34.913000000000004,33.851,36.917,32.021
37.282,34.399,34.898,33.845,36.866,31.989
37.233000000000004,34.381,34.884,33.839,36.815,31.96
37.19,34.363,34.872,33.834,36.766,31.935
37.153,34.347,34.859,33.829,36.719,31.916
37.124,34.333,34.847,33.824,36.677,31.901999999999997
37.102,34.319,34.834,33.82,36.641,31.892
37.088,34.305,34.82,33.816,36.611,31.885
37.079,34.29,34.804,33.812,36.589,31.88
37.074,34.273,34.786,33.806999999999995,36.574,31.877
37.073,34.254,34.766,33.801,36.566,31.872
37.073,34.234,34.745,33.793,36.565,31.865
37.074,34.214,34.724000000000004,33.783,36.57,31.855999999999998
37.075,34.193000000000005,34.703,33.773,36.58,31.845
37.076,34.171,34.681,33.763000000000005,36.594,31.83
37.076,34.15,34.66,33.755,36.609,31.811999999999998
37.074,34.133,34.639,33.751,36.626,31.791999999999998
37.071,34.126,34.619,33.751999999999995,36.641999999999996,31.77
37.064,34.131,34.6,33.760999999999996,36.658,31.747
37.055,34.145,34.580999999999996,33.779,36.672,31.724
37.041,34.166,34.563,33.81,36.683,31.701999999999998
37.025,34.19,34.546,33.859,36.693000000000005,31.682
37.004,34.211999999999996,34.529,33.931,36.699,31.664
36.981,34.229,34.514,34.027,36.703,31.647
36.955999999999996,34.236999999999995,34.499,34.148,36.704,31.633000000000003
36.928000000000004,34.236,34.484,34.292,36.703,31.621
36.897,34.225,34.47,34.455999999999996,36.699,31.609
36.864000000000004,34.203,34.455999999999996,34.638000000000005,36.692,31.598000000000003
36.829,34.171,34.441,34.833,36.681,31.587
36.791,34.132,34.427,35.037,36.667,31.573
36.751999999999995,34.086999999999996,34.411,35.247,36.65,31.558000000000003
36.711,34.038000000000004,34.394,35.459,36.628,31.541
36.671,33.986999999999995,34.376,35.67,36.602,31.522
36.631,33.937,34.357,35.875,36.571999999999996,31.502
36.593,33.889,34.336999999999996,36.071999999999996,36.539,31.483
36.555,33.845,34.317,36.258,36.503,31.464000000000002
36.518,33.804,34.297,36.433,36.466,31.447
36.483000000000004,33.768,34.279,36.595,36.428000000000004,31.430999999999997
36.449,33.738,34.260999999999996,36.742,36.389,31.416
36.419000000000004,33.714,34.246,36.873000000000005,36.349000000000004,31.401999999999997
36.391,33.695,34.234,36.988,36.308,31.391
36.368,33.681,34.223,37.086999999999996,36.266,31.381
36.349000000000004,33.671,34.215,37.168,36.221,31.372
36.334,33.663000000000004,34.208,37.233000000000004,36.175,31.365
36.324,33.657,34.202,37.282,36.126,31.36
36.317,33.652,34.196999999999996,37.317,36.074,31.355999999999998
36.313,33.647,34.193000000000005,37.336999999999996,36.021,31.354
36.311,33.644,34.189,37.344,35.966,31.355999999999998
36.311,33.641,34.184,37.341,35.911,31.363000000000003
36.312,33.639,34.179,37.328,35.856,31.378
36.314,33.637,34.172,37.306999999999995,35.802,31.403000000000002
36.317,33.635,34.163000000000004,37.28,35.751,31.441999999999997
36.321999999999996,33.632,34.153,37.249,35.702,31.499000000000002
36.328,33.628,34.14,37.217,35.657,31.576
36.334,33.624,34.125,37.181999999999995,35.615,31.678
36.341,33.62,34.11,37.146,35.575,31.808000000000003
36.348,33.617,34.093,37.109,35.538000000000004,31.968000000000004
36.352,33.614000000000004,34.077,37.07,35.501999999999995,32.161
36.355,33.611999999999995,34.063,37.032,35.466,32.389
36.355,33.611999999999995,34.049,36.993,35.43,32.65
36.353,33.618,34.037,36.955999999999996,35.394,32.946
36.349000000000004,33.63,34.025999999999996,36.92,35.358000000000004,33.274
36.344,33.65,34.016,36.885,35.321,33.632
36.336999999999996,33.683,34.007,36.852,35.285,34.018
36.328,33.729,34.0,36.819,35.251,34.426
36.318000000000005,33.79,33.993,36.788000000000004,35.218,34.851
36.305,33.869,33.986999999999995,36.758,35.187,35.289
36.29,33.965,33.979,36.728,35.158,35.733000000000004
36.272,34.079,33.971,36.699,35.131,36.178000000000004
36.251,34.211,33.961999999999996,36.669000000000004,35.105,36.618
36.227,34.36,33.952,36.639,35.080999999999996,37.046
36.201,34.522,33.941,36.608000000000004,35.063,37.457
36.173,34.696,33.929,36.575,35.053000000000004,37.845
36.143,34.876999999999995,33.917,36.541,35.05,38.205999999999996
36.113,35.063,33.904,36.507,35.053000000000004,38.535
36.080999999999996,35.249,33.891999999999996,36.472,35.056999999999995,38.828
36.048,35.431999999999995,33.881,36.436,35.061,39.083
36.016,35.607,33.871,36.398,35.059,39.301
35.983000000000004,35.77,33.861,36.359,35.051,39.481
35.949,35.919000000000004,33.853,36.318000000000005,35.036,39.624
35.917,36.052,33.844,36.275999999999996,35.012,39.733000000000004
35.884,36.168,33.836,36.233000000000004,34.982,39.809
35.851,36.265,33.826,36.188,34.946,39.856
35.819,36.344,33.816,36.143,34.904,39.876
35.786,36.405,33.803000000000004,36.097,34.859,39.874
35.751999999999995,36.45,33.789,36.051,34.81,39.853
35.718,36.479,33.774,36.005,34.758,39.815
35.681999999999995,36.493,33.759,35.96,34.705,39.764
35.646,36.493,33.744,35.916,34.650999999999996,39.704
35.609,36.483000000000004,33.73,35.873000000000005,34.599000000000004,39.638000000000005
35.571999999999996,36.463,33.716,35.832,34.548,39.568000000000005
35.535,36.437,33.703,35.793,34.5,39.497
35.499,36.408,33.691,35.756,34.455999999999996,39.426
35.461999999999996,36.376,33.679,35.719,34.417,39.358000000000004
35.424,36.344,33.667,35.681,34.384,39.293
35.385999999999996,36.314,33.656,35.641999999999996,34.355,39.232
35.348,36.287,33.647,35.605,34.332,39.176
35.311,36.263000000000005,33.64,35.57,34.312,39.124
35.273,36.242,33.635999999999996,35.538000000000004,34.296,39.077
35.238,36.224000000000004,33.639,35.512,34.281,39.035
35.207,36.208,33.65,35.491,34.268,38.997
35.187,36.193000000000005,33.67,35.476,34.255,38.961999999999996
35.18,36.179,33.704,35.467,34.242,38.931
35.185,36.166,33.751999999999995,35.464,34.228,38.900999999999996
35.196,36.152,33.816,35.465,34.213,38.873000000000005
35.211,36.138000000000005,33.897,35.471,34.196,38.845
35.225,36.124,33.997,35.481,34.179,38.815
35.234,36.11,34.111999999999995,35.494,34.161,38.784
35.235,36.095,34.244,35.51,34.141999999999996,38.751
35.227,36.078,34.391,35.528,34.123000000000005,38.716
35.209,36.06,34.55,35.549,34.104,38.679
35.181999999999995,36.041,34.721,35.57,34.085,38.64
35.145,36.02,34.900999999999996,35.592,34.064,38.599000000000004
35.1,35.999,35.086,35.613,34.042,38.556999999999995
35.047,35.977,35.273,35.632,34.02,38.512
34.986999999999995,35.955,35.46,35.649,33.996,38.465
34.924,35.931,35.641999999999996,35.663000000000004,33.971,38.415
34.858000000000004,35.905,35.817,35.674,33.945,38.361999999999995
34.792,35.879,35.982,35.681,33.921,38.306
34.728,35.851,36.133,35.683,33.897,38.247
34.669000000000004,35.821,36.269,35.683,33.875,38.188
34.616,35.79,36.387,35.678000000000004,33.854,38.128
34.57,35.757,36.486999999999995,35.67,33.835,38.068000000000005
34.531,35.72,36.568000000000005,35.659,33.816,38.009
34.499,35.681,36.631,35.644,33.798,37.951
34.475,35.64,36.677,35.626,33.781,37.895
34.455999999999996,35.598,36.705999999999996,35.605,33.763000000000005,37.84
34.443000000000005,35.556,36.72,35.583,33.745,37.787
34.433,35.515,36.721,35.56,33.728,37.735
34.427,35.474000000000004,36.71,35.535,33.711999999999996,37.685
34.421,35.435,36.688,35.51,33.696,37.635999999999996
34.417,35.399,36.658,35.485,33.681,37.589
34.411,35.365,36.623000000000005,35.458,33.666,37.546
34.405,35.335,36.583,35.43,33.652,37.506
34.396,35.31,36.543,35.402,33.638000000000005,37.471
