Trial 1:0back,Trial 2:2back,Trial 3:3back,Trial 4:2back,Trial 5:3back,Trial 6:0back
33.867,38.902,36.277,36.269,35.209,35.103
33.855,38.906,36.292,36.233000000000004,35.167,35.232
33.844,38.898,36.297,36.195,35.125,35.376
33.832,38.88,36.294000000000004,36.154,35.082,35.535
33.821999999999996,38.853,36.283,36.113,35.041,35.708
33.813,38.817,36.266,36.071,35.001999999999995,35.894
33.808,38.773,36.244,36.028,34.966,36.089
33.806999999999995,38.723,36.217,35.985,34.931999999999995,36.292
33.815,38.667,36.186,35.94,34.899,36.5
33.833,38.605,36.154,35.894,34.869,36.71
33.865,38.539,36.122,35.846,34.842,36.92
33.914,38.469,36.091,35.796,34.818000000000005,37.126
33.983000000000004,38.397,36.063,35.744,34.798,37.326
34.076,38.32,36.038000000000004,35.691,34.781,37.518
34.196,38.241,36.014,35.635999999999996,34.766999999999996,37.699
34.345,38.158,35.993,35.580999999999996,34.757,37.867
34.525,38.074,35.971,35.527,34.75,38.021
34.736999999999995,37.988,35.95,35.476,34.747,38.16
34.98,37.902,35.929,35.426,34.746,38.284
35.251,37.816,35.907,35.378,34.75,38.393
35.549,37.732,35.885999999999996,35.33,34.757,38.486999999999995
35.868,37.649,35.864000000000004,35.284,34.768,38.566
36.204,37.568000000000005,35.841,35.236999999999995,34.782,38.63
36.552,37.488,35.817,35.19,34.797,38.68
36.906,37.409,35.79,35.141999999999996,34.812,38.715
37.26,37.33,35.760999999999996,35.094,34.827,38.736999999999995
37.609,37.251,35.73,35.045,34.84,38.748000000000005
37.948,37.173,35.696,34.998000000000005,34.852,38.748000000000005
38.271,37.094,35.661,34.952,34.863,38.738
38.574,37.015,35.624,34.908,34.872,38.719
38.853,36.935,35.585,34.867,34.878,38.691
39.105,36.853,35.545,34.83,34.881,38.655
39.329,36.771,35.504,34.797,34.881,38.611
39.522,36.688,35.463,34.771,34.875,38.562
39.685,36.605,35.422,34.751,34.866,38.507
39.818000000000005,36.524,35.381,34.74,34.853,38.449
39.922,36.446,35.342,34.736,34.836,38.389
40.001,36.372,35.304,34.74,34.817,38.326
40.056999999999995,36.304,35.269,34.75,34.796,38.260999999999996
40.09,36.243,35.235,34.765,34.774,38.196
40.105,36.19,35.205,34.784,34.751,38.129
40.103,36.145,35.177,34.806,34.729,38.062
40.086999999999996,36.109,35.153,34.830999999999996,34.707,37.996
40.059,36.083,35.133,34.858000000000004,34.686,37.93
40.02,36.066,35.119,34.885999999999996,34.666,37.865
39.972,36.059,35.11,34.915,34.647,37.801
39.913000000000004,36.061,35.104,34.943000000000005,34.628,37.736999999999995
39.846,36.07,35.101,34.97,34.608000000000004,37.677
39.769,36.086,35.101,34.995,34.586,37.626
39.683,36.106,35.102,35.016999999999996,34.564,37.584
39.589,36.13,35.106,35.037,34.539,37.549
39.486999999999995,36.157,35.111999999999995,35.054,34.513000000000005,37.519
39.379,36.185,35.119,35.07,34.485,37.49
39.264,36.213,35.129,35.084,34.455999999999996,37.458
39.144,36.242,35.14,35.098,34.425,37.418
39.016999999999996,36.271,35.152,35.111999999999995,34.394,37.37
38.885999999999996,36.299,35.166,35.125,34.361,37.312
38.75,36.325,35.181,35.135,34.328,37.244
38.609,36.349000000000004,35.196999999999996,35.139,34.294000000000004,37.167
38.464,36.37,35.214,35.134,34.26,37.083
38.316,36.388000000000005,35.232,35.12,34.228,36.993
38.164,36.404,35.25,35.096,34.198,36.900999999999996
38.009,36.418,35.268,35.066,34.171,36.808
37.852,36.428000000000004,35.285,35.031,34.146,36.718
37.693000000000005,36.434,35.3,34.996,34.123000000000005,36.633
37.534,36.435,35.315,34.961999999999996,34.101,36.554
37.376,36.431,35.327,34.933,34.079,36.485
37.219,36.42,35.336999999999996,34.909,34.056,36.426
37.063,36.402,35.344,34.893,34.034,36.379
36.911,36.378,35.347,34.884,34.014,36.344
36.763000000000005,36.347,35.346,34.882,33.995,36.32
36.621,36.31,35.341,34.887,33.977,36.306999999999995
36.486999999999995,36.268,35.33,34.899,33.96,36.303000000000004
36.363,36.222,35.315,34.915,33.944,36.306999999999995
36.249,36.173,35.296,34.934,33.927,36.318000000000005
36.148,36.121,35.273,34.955,33.912,36.334
36.06,36.068000000000005,35.248000000000005,34.975,33.897,36.352
35.985,36.014,35.221,34.991,33.884,36.372
35.923,35.96,35.193000000000005,35.001999999999995,33.872,36.39
35.874,35.906,35.164,35.006,33.861,36.406
35.839,35.852,35.137,35.004,33.85,36.42
35.817,35.798,35.11,34.996,33.84,36.429
35.806999999999995,35.744,35.085,34.982,33.83,36.436
35.808,35.687,35.061,34.963,33.821999999999996,36.438
35.819,35.629,35.039,34.942,33.815,36.437
35.84,35.568000000000005,35.018,34.919000000000004,33.81,36.431999999999995
35.869,35.505,34.997,34.895,33.806,36.423
35.905,35.44,34.977,34.871,33.804,36.411
35.949,35.373000000000005,34.955999999999996,34.847,33.801,36.396
35.999,35.305,34.935,34.825,33.799,36.38
36.054,35.236,34.912,34.803000000000004,33.796,36.364000000000004
36.113,35.165,34.888000000000005,34.783,33.793,36.348
36.177,35.094,34.861,34.765,33.789,36.33
36.243,35.023,34.833,34.749,33.785,36.313
36.311,34.953,34.804,34.735,33.78,36.295
36.38,34.883,34.774,34.724000000000004,33.773,36.275
36.446999999999996,34.814,34.742,34.715,33.764,36.255
36.512,34.747,34.709,34.707,33.754,36.232
36.571999999999996,34.681999999999995,34.675,34.7,33.743,36.207
36.626,34.621,34.641,34.692,33.73,36.18
36.674,34.564,34.606,34.684,33.716,36.149
36.715,34.51,34.571999999999996,34.675,33.7,36.115
36.749,34.46,34.537,34.665,33.681,36.078
36.775,34.413000000000004,34.501999999999995,34.654,33.661,36.038000000000004
36.793,34.369,34.468,34.644,33.638000000000005,35.995
36.805,34.328,34.434,34.634,33.611999999999995,35.951
36.811,34.29,34.400999999999996,34.624,33.584,35.904
36.811,34.255,34.372,34.615,33.554,35.854
36.805,34.222,34.347,34.607,33.522,35.802
36.795,34.192,34.326,34.6,33.492,35.747
36.779,34.164,34.309,34.596,33.465,35.689
36.759,34.137,34.297,34.593,33.44,35.628
36.733000000000004,34.111999999999995,34.287,34.593,33.418,35.565
36.703,34.089,34.279,34.595,33.397,35.5
36.668,34.066,34.273,34.597,33.378,35.434
36.626999999999995,34.045,34.268,34.6,33.36,35.367
36.580999999999996,34.025999999999996,34.262,34.603,33.343,35.299
36.53,34.007,34.256,34.604,33.327,35.231
36.473,33.989000000000004,34.249,34.605,33.314,35.164
36.411,33.972,34.242,34.604,33.303000000000004,35.098
36.345,33.955,34.235,34.601,33.295,35.036
36.275999999999996,33.938,34.226,34.598,33.291,34.977
36.205,33.922,34.216,34.595,33.292,34.922
36.132,33.906,34.205,34.59,33.299,34.872
36.059,33.891,34.193000000000005,34.585,33.312,34.825
35.986999999999995,33.876999999999995,34.18,34.578,33.332,34.78
35.915,33.864000000000004,34.166,34.571,33.361,34.738
35.845,33.852,34.152,34.561,33.399,34.698
35.775999999999996,33.841,34.137,34.551,33.446,34.66
35.707,33.830999999999996,34.122,34.542,33.504,34.623000000000005
35.64,33.821999999999996,34.108000000000004,34.534,33.571,34.586999999999996
35.574,33.813,34.092,34.525999999999996,33.646,34.551
35.508,33.806999999999995,34.074,34.516999999999996,33.73,34.516
35.442,33.801,34.053000000000004,34.508,33.821,34.481
35.376,33.797,34.031,34.496,33.921,34.444
35.311,33.793,34.007,34.483000000000004,34.028,34.405
35.247,33.788000000000004,33.981,34.468,34.141999999999996,34.365
35.184,33.781,33.955999999999996,34.451,34.260999999999996,34.325
35.123000000000005,33.771,33.931999999999995,34.431999999999995,34.382,34.283
35.064,33.759,33.911,34.412,34.501999999999995,34.242
35.007,33.743,33.893,34.391,34.619,34.2
34.953,33.724000000000004,33.878,34.371,34.73,34.158
34.900999999999996,33.703,33.866,34.353,34.835,34.115
34.852,33.679,33.856,34.339,34.933,34.071
34.806,33.654,33.849000000000004,34.329,35.024,34.027
34.764,33.628,33.845,34.326,35.108000000000004,33.984
34.726,33.6,33.841,34.330999999999996,35.184,33.944
34.69,33.569,33.84,34.346,35.251,33.905
34.657,33.537,33.838,34.372,35.31,33.869
34.626999999999995,33.501999999999995,33.836999999999996,34.41,35.36,33.835
34.599000000000004,33.466,33.835,34.458,35.402,33.802
34.573,33.429,33.83,34.518,35.435,33.772
34.548,33.391999999999996,33.821999999999996,34.589,35.459,33.746
34.524,33.356,33.813,34.668,35.474000000000004,33.726
34.5,33.32,33.801,34.754,35.482,33.711999999999996
34.477,33.286,33.787,34.846,35.482,33.707
34.454,33.254,33.772,34.943000000000005,35.476,33.71
34.431999999999995,33.225,33.755,35.043,35.465,33.724000000000004
34.411,33.199,33.738,35.149,35.449,33.749
34.391,33.18,33.72,35.257,35.429,33.788000000000004
34.373000000000005,33.167,33.7,35.369,35.407,33.841
34.355,33.164,33.681,35.482,35.383,33.911
34.339,33.173,33.662,35.595,35.358000000000004,33.997
34.323,33.195,33.644,35.707,35.332,34.1
34.308,33.232,33.629,35.814,35.306999999999995,34.22
34.295,33.286,33.615,35.916,35.281,34.357
34.283,33.361,33.604,36.010999999999996,35.257,34.510999999999996
34.273,33.457,33.595,36.099000000000004,35.233000000000004,34.68
34.265,33.577,33.591,36.178000000000004,35.211,34.863
34.258,33.723,33.591,36.249,35.189,35.058
34.251999999999995,33.894,33.598,36.312,35.169000000000004,35.260999999999996
34.246,34.089,33.613,36.365,35.149,35.468
34.241,34.308,33.635,36.407,35.13,35.676
34.234,34.547,33.668,36.439,35.111999999999995,35.881
34.226,34.804,33.71,36.461,35.093,36.080999999999996
34.216,35.075,33.763000000000005,36.472,35.076,36.273
34.204,35.355,33.828,36.475,35.059,36.455
34.189,35.641,33.905,36.471,35.041,36.626999999999995
34.172,35.93,33.996,36.46,35.022,36.788000000000004
34.154,36.217,34.099000000000004,36.444,35.0,36.936
34.135999999999996,36.497,34.217,36.423,34.975,37.07
34.116,36.768,34.347,36.397,34.946,37.189
34.096,37.025,34.488,36.365,34.915,37.292
34.075,37.266999999999996,34.639,36.329,34.883,37.38
34.052,37.492,34.799,36.286,34.852,37.452
34.028,37.698,34.964,36.24,34.823,37.51
34.004,37.884,35.133,36.189,34.796,37.556
33.98,38.05,35.303000000000004,36.135999999999996,34.772,37.589
33.958,38.195,35.472,36.080999999999996,34.748000000000005,37.611999999999995
33.939,38.32,35.637,36.025999999999996,34.726,37.624
33.924,38.424,35.795,35.97,34.704,37.626
33.913000000000004,38.509,35.943000000000005,35.915,34.684,37.62
33.909,38.574,36.08,35.861,34.666,37.606
33.912,38.622,36.203,35.809,34.650999999999996,37.586
33.925,38.653,36.314,35.758,34.639,37.559
33.951,38.668,36.41,35.709,34.629,37.527
33.991,38.669000000000004,36.492,35.661,34.62,37.49
34.05,38.657,36.561,35.614000000000004,34.609,37.446999999999996
34.129,38.632,36.616,35.569,34.593,37.4
34.231,38.598,36.658,35.525,34.571999999999996,37.35
34.359,38.554,36.689,35.484,34.55,37.297
34.514,38.501,36.708,35.448,34.527,37.243
34.698,38.442,36.718,35.416,34.507,37.189
34.909,38.376,36.722,35.388000000000005,34.491,37.133
35.147,38.306999999999995,36.719,35.361,34.482,37.075
35.41,38.235,36.713,35.336,34.48,37.015
35.695,38.162,36.702,35.31,34.486999999999995,36.953
35.998000000000005,38.086999999999996,36.689,35.283,34.501999999999995,36.889
36.314,38.010999999999996,36.674,35.254,34.524,36.824
36.639,37.933,36.656,35.221,34.551,36.758
36.967,37.856,36.638000000000005,35.185,34.583,36.689
37.293,37.779,36.617,35.146,34.617,36.62
37.613,37.703,36.595,35.103,34.653,36.549
37.92,37.629,36.571999999999996,35.059,34.686,36.478
38.213,37.558,36.548,35.013000000000005,34.718,36.406
38.486,37.491,36.521,34.97,34.745,36.333
38.736999999999995,37.426,36.493,34.929,34.768,36.260999999999996
38.964,37.361999999999995,36.465,34.894,34.785,36.187
39.166,37.298,36.435,34.863,34.797,36.113
39.343,37.234,36.404,34.839,34.803000000000004,36.038000000000004
39.495,37.167,36.373000000000005,34.821,34.802,35.963
39.623000000000005,37.099000000000004,36.342,34.809,34.795,35.888000000000005
39.727,37.027,36.312,34.803000000000004,34.781,35.815
39.81,36.954,36.282,34.802,34.763000000000005,35.743
39.871,36.876999999999995,36.253,34.805,34.741,35.674
39.913000000000004,36.798,36.225,34.812,34.717,35.608000000000004
39.936,36.716,36.196999999999996,34.824,34.692,35.547
39.941,36.632,36.167,34.839,34.664,35.49
39.93,36.546,36.137,34.859,34.635999999999996,35.437
39.904,36.46,36.104,34.883,34.607,35.388000000000005
39.865,36.375,36.069,34.911,34.577,35.343
39.814,36.292,36.031,34.943000000000005,34.547,35.303000000000004
39.753,36.211999999999996,35.991,34.976,34.518,35.269
39.684,36.137,35.948,35.010999999999996,34.49,35.244
39.606,36.068000000000005,35.904,35.045,34.465,35.225
39.523,36.006,35.859,35.078,34.442,35.213
39.434,35.951,35.814,35.108000000000004,34.421,35.205999999999996
39.341,35.906,35.768,35.135999999999996,34.402,35.202
39.244,35.868,35.724000000000004,35.16,34.383,35.201
39.143,35.839,35.681999999999995,35.179,34.366,35.202
39.039,35.818000000000005,35.643,35.193000000000005,34.349000000000004,35.204
38.931,35.805,35.607,35.202,34.332,35.205999999999996
38.821,35.8,35.576,35.205999999999996,34.316,35.208
38.708,35.801,35.55,35.207,34.3,35.208
38.592,35.81,35.528,35.205,34.284,35.205999999999996
38.475,35.825,35.510999999999996,35.2,34.266999999999996,35.202
38.357,35.845,35.5,35.194,34.249,35.195
38.239000000000004,35.869,35.495,35.187,34.23,35.185
38.122,35.897,35.495,35.179,34.21,35.169000000000004
38.006,35.927,35.5,35.169000000000004,34.19,35.149
37.891,35.957,35.508,35.156,34.17,35.125
37.779,35.986,35.52,35.14,34.15,35.095
37.669000000000004,36.014,35.535,35.122,34.131,35.061
37.56,36.041,35.55,35.102,34.111,35.022
37.454,36.067,35.564,35.083,34.09,34.98
37.349000000000004,36.089,35.578,35.063,34.068000000000005,34.933
37.244,36.109,35.59,35.045,34.046,34.883
37.141,36.125,35.6,35.028,34.022,34.829
37.039,36.137,35.608000000000004,35.013000000000005,33.998000000000005,34.774
36.94,36.143,35.613,35.0,33.975,34.717
36.846,36.141999999999996,35.617,34.989000000000004,33.952,34.659
36.757,36.133,35.618,34.98,33.93,34.601
36.675,36.114000000000004,35.617,34.974000000000004,33.91,34.544000000000004
36.602,36.086999999999996,35.615,34.969,33.891,34.49
36.538000000000004,36.052,35.611,34.966,33.874,34.441
36.484,36.010999999999996,35.607,34.963,33.859,34.398
36.441,35.965,35.604,34.96,33.846,34.363
36.41,35.916,35.602,34.955,33.834,34.335
36.39,35.864000000000004,35.601,34.949,33.823,34.312
36.382,35.808,35.602,34.94,33.814,34.294000000000004
36.383,35.75,35.605,34.929,33.806,34.279
36.395,35.688,35.609,34.916,33.8,34.266999999999996
36.414,35.624,35.614000000000004,34.903,33.796,34.258
36.44,35.56,35.62,34.89,33.795,34.25
36.471,35.496,35.626,34.876999999999995,33.796,34.242
36.506,35.433,35.63,34.865,33.799,34.234
36.543,35.373000000000005,35.631,34.854,33.803000000000004,34.225
36.580999999999996,35.316,35.628,34.844,33.806999999999995,34.214
36.619,35.26,35.62,34.833,33.809,34.202
36.657,35.208,35.607,34.821999999999996,33.811,34.186
36.694,35.156,35.586999999999996,34.81,33.813,34.167
36.73,35.107,35.562,34.799,33.814,34.144
36.765,35.058,35.531,34.787,33.816,34.12
36.798,35.009,35.496,34.775,33.818000000000005,34.093
36.828,34.961999999999996,35.455999999999996,34.765,33.819,34.064
36.855,34.914,35.413000000000004,34.756,33.819,34.034
36.879,34.866,35.367,34.747,33.817,34.001999999999995
36.899,34.817,35.319,34.739000000000004,33.813,33.969
36.915,34.768,35.271,34.731,33.804,33.936
36.927,34.716,35.224000000000004,34.723,33.791,33.902
36.936,34.664,35.18,34.715,33.774,33.869
36.939,34.611,35.138000000000005,34.705999999999996,33.754,33.834
36.938,34.556,35.098,34.698,33.734,33.797
36.931999999999995,34.501,35.062,34.69,33.713,33.757
36.922,34.446,35.027,34.681,33.694,33.713
36.906,34.391,34.996,34.672,33.676,33.666
36.885,34.336999999999996,34.967,34.661,33.66,33.617
36.859,34.285,34.94,34.65,33.646,33.565
36.828,34.234,34.915,34.639,33.635,33.510999999999996
36.793,34.185,34.891,34.629,33.626999999999995,33.455999999999996
36.751999999999995,34.14,34.868,34.62,33.621,33.397
36.705999999999996,34.1,34.846,34.613,33.618,33.335
36.656,34.064,34.824,34.609,33.618,33.271
36.603,34.032,34.802,34.606,33.62,33.205
36.546,34.003,34.78,34.603,33.624,33.139
36.486999999999995,33.977,34.757,34.601,33.63,33.075
36.426,33.952,34.734,34.597,33.638000000000005,33.013000000000005
36.363,33.929,34.71,34.591,33.65,32.954
36.3,33.906,34.684,34.583,33.666,32.898
36.235,33.884,34.657,34.575,33.685,32.846
36.17,33.863,34.629,34.566,33.705,32.797
36.104,33.841,34.6,34.558,33.722,32.753
36.037,33.821,34.57,34.55,33.736,32.714
35.97,33.8,34.539,34.544000000000004,33.749,32.68
35.900999999999996,33.777,34.509,34.539,33.765,32.653
35.830999999999996,33.753,34.479,34.534,33.789,32.631
35.760999999999996,33.728,34.448,34.529,33.823,32.613
35.689,33.702,34.417,34.525,33.872,32.6
35.618,33.678000000000004,34.385999999999996,34.519,33.938,32.59
35.547,33.657,34.357,34.513000000000005,34.019,32.583
35.476,33.641,34.33,34.506,34.115,32.577
35.406,33.63,34.306,34.5,34.227,32.571999999999996
35.339,33.623000000000005,34.286,34.494,34.351,32.568000000000005
35.275,33.62,34.27,34.49,34.486999999999995,32.563
35.214,33.621,34.258,34.489000000000004,34.632,32.56
35.158,33.625,34.251,34.491,34.783,32.559
35.105,33.631,34.246,34.499,34.938,32.561
35.056999999999995,33.639,34.244,34.513000000000005,35.093,32.568000000000005
35.012,33.65,34.243,34.535,35.244,32.583
34.972,33.661,34.243,34.566,35.389,32.607
34.934,33.672,34.243,34.608000000000004,35.525999999999996,32.641999999999996
34.899,33.683,34.241,34.663000000000004,35.652,32.689
34.865,33.693000000000005,34.236,34.729,35.766999999999996,32.75
34.833,33.702,34.229,34.808,35.869,32.826
34.802,33.709,34.218,34.899,35.958,32.917
34.772,33.714,34.205,35.001,36.034,33.023
34.742,33.718,34.189,35.111999999999995,36.095,33.145
34.711,33.719,34.172,35.232,36.141999999999996,33.282
34.681,33.718,34.153,35.358000000000004,36.178000000000004,33.433
34.650999999999996,33.716,34.133,35.49,36.202,33.596
34.621,33.711,34.111999999999995,35.624,36.216,33.768
34.593,33.703,34.091,35.76,36.223,33.945
34.565,33.694,34.07,35.895,36.223,34.126
34.54,33.681999999999995,34.049,36.027,36.218,34.306999999999995
34.516,33.668,34.029,36.155,36.208,34.486999999999995
34.494,33.652,34.010999999999996,36.275999999999996,36.194,34.663000000000004
34.475,33.633,33.993,36.391,36.177,34.833
34.457,33.611,33.976,36.497,36.158,34.995
34.441,33.588,33.959,36.594,36.137,35.146
34.426,33.561,33.942,36.681999999999995,36.114000000000004,35.285
34.411,33.533,33.926,36.760999999999996,36.09,35.409
34.398,33.503,33.911,36.829,36.064,35.519
34.385999999999996,33.471,33.897,36.885999999999996,36.037,35.614000000000004
34.374,33.44,33.884,36.931,36.01,35.694
34.364000000000004,33.41,33.873000000000005,36.965,35.982,35.758
34.356,33.384,33.864000000000004,36.988,35.954,35.808
34.349000000000004,33.361999999999995,33.856,37.001999999999995,35.926,35.845
34.343,33.346,33.851,37.006,35.898,35.87
34.336999999999996,33.338,33.847,37.003,35.869,35.884
34.332,33.339,33.846,36.992,35.84,35.889
34.326,33.351,33.845,36.977,35.811,35.884
34.32,33.376999999999995,33.846,36.955999999999996,35.78,35.871
34.313,33.417,33.845,36.931,35.75,35.852
34.304,33.477,33.842,36.900999999999996,35.719,35.826
34.294000000000004,33.556999999999995,33.838,36.867,35.688,35.795
34.281,33.659,33.83,36.829,35.657,35.759
34.266,33.783,33.819,36.789,35.625,35.72
34.247,33.929,33.805,36.745,35.593,35.678000000000004
34.225,34.095,33.787,36.699,35.559,35.635
34.2,34.28,33.765,36.650999999999996,35.522,35.593
34.171,34.481,33.74,36.6,35.484,35.551
34.139,34.696,33.713,36.548,35.443000000000005,35.512
34.104,34.924,33.683,36.492,35.400999999999996,35.474000000000004
34.068000000000005,35.159,33.650999999999996,36.433,35.36,35.436
34.03,35.399,33.619,36.371,35.318000000000005,35.399
33.993,35.64,33.589,36.306999999999995,35.278,35.361
33.955,35.876999999999995,33.56,36.242,35.239000000000004,35.323
33.92,36.107,33.536,36.177,35.202,35.285
33.885999999999996,36.327,33.518,36.114000000000004,35.168,35.247
33.856,36.535,33.505,36.052,35.138000000000005,35.207
33.829,36.729,33.498000000000005,35.994,35.111,35.166
33.806999999999995,36.906,33.495,35.937,35.089,35.122
33.79,37.067,33.496,35.883,35.071999999999996,35.076
33.78,37.211999999999996,33.5,35.830999999999996,35.059,35.027
33.778,37.339,33.509,35.783,35.05,34.977
33.786,37.446999999999996,33.522,35.736999999999995,35.043,34.927
33.804,37.538000000000004,33.542,35.695,35.037,34.879
33.836,37.611,33.568000000000005,35.656,35.031,34.832
33.884,37.668,33.603,35.622,35.027,34.786
33.949,37.711,33.647,35.59,35.023,34.74
34.036,37.743,33.703,35.562,35.021,34.692
34.146,37.764,33.773,35.536,35.02,34.644
34.28,37.777,33.857,35.513000000000005,35.02,34.599000000000004
34.44,37.781,33.955999999999996,35.494,35.02,34.555
34.628,37.775999999999996,34.071,35.478,35.022,34.513000000000005
34.842,37.760999999999996,34.202,35.468,35.025,34.472
35.083,37.739000000000004,34.349000000000004,35.465,35.029,34.431999999999995
35.349000000000004,37.707,34.51,35.468,35.033,34.394
35.638000000000005,37.667,34.683,35.479,35.037,34.357
35.946,37.618,34.865,35.496,35.041,34.323
36.269,37.562,35.055,35.518,35.045,34.292
36.603,37.499,35.249,35.544000000000004,35.048,34.266999999999996
36.943000000000005,37.431,35.444,35.571999999999996,35.05,34.249
37.283,37.358000000000004,35.635999999999996,35.6,35.052,34.236999999999995
37.619,37.282,35.821999999999996,35.626999999999995,35.053000000000004,34.234
37.944,37.205,35.998000000000005,35.652,35.052,34.236999999999995
38.255,37.126999999999995,36.164,35.675,35.049,34.247
38.548,37.05,36.318000000000005,35.695,35.045,34.264
38.819,36.974000000000004,36.458,35.713,35.04,34.287
39.066,36.899,36.585,35.729,35.036,34.315
39.288000000000004,36.825,36.698,35.744,35.031,34.347
39.482,36.751999999999995,36.798,35.759,35.025999999999996,34.382
39.65,36.68,36.885,35.774,35.02,34.42
39.79,36.607,36.961,35.789,35.012,34.459
39.904,36.535,37.027,35.806,35.003,34.498000000000005
39.99,36.463,37.083,35.824,34.991,34.537
40.052,36.39,37.131,35.842,34.974000000000004,34.573
40.09,36.316,37.172,35.859,34.953,34.608000000000004
40.108000000000004,36.241,37.205,35.876,34.925,34.64
40.109,36.164,37.231,35.891,34.891999999999996,34.669000000000004
40.093,36.085,37.251,35.905,34.854,34.694
40.064,36.006,37.265,35.919000000000004,34.814,34.715
40.024,35.926,37.273,35.93,34.774,34.73
39.975,35.847,37.275,35.938,34.734,34.741
39.918,35.77,37.271,35.941,34.695,34.747
39.856,35.699,37.260999999999996,35.94,34.658,34.748000000000005
39.789,35.633,37.244,35.934,34.621,34.746
39.718,35.573,37.221,35.922,34.586,34.74
39.643,35.52,37.191,35.904,34.552,34.731
39.564,35.473,37.157,35.882,34.52,34.718
39.481,35.431999999999995,37.12,35.854,34.491,34.704
39.395,35.396,37.080999999999996,35.821999999999996,34.464,34.687
39.304,35.365,37.042,35.787,34.44,34.67
39.211,35.339,37.004,35.748000000000005,34.415,34.652
39.114000000000004,35.318000000000005,36.967,35.707,34.391999999999996,34.635999999999996
39.015,35.303000000000004,36.933,35.664,34.368,34.621
38.913000000000004,35.292,36.904,35.62,34.346,34.606
38.81,35.287,36.879,35.575,34.325,34.592
38.705999999999996,35.284,36.858000000000004,35.529,34.308,34.577
38.603,35.284,36.843,35.483000000000004,34.294000000000004,34.562
38.5,35.285,36.830999999999996,35.437,34.285,34.544000000000004
38.399,35.288000000000004,36.821999999999996,35.393,34.28,34.525999999999996
38.299,35.293,36.815,35.352,34.279,34.506
38.2,35.299,36.806999999999995,35.313,34.281,34.483000000000004
38.1,35.306,36.799,35.278,34.284,34.459
37.998000000000005,35.314,36.787,35.246,34.287,34.431999999999995
37.895,35.32,36.773,35.217,34.288000000000004,34.404
37.789,35.326,36.754,35.191,34.287,34.373000000000005
37.68,35.33,36.731,35.166,34.283,34.342
37.57,35.332,36.701,35.141999999999996,34.275999999999996,34.31
37.458,35.334,36.664,35.117,34.265,34.277
37.347,35.335,36.62,35.092,34.25,34.244
37.239000000000004,35.335,36.569,35.066,34.233000000000004,34.21
37.133,35.333,36.514,35.041,34.211999999999996,34.175
37.032,35.33,36.458,35.015,34.188,34.138000000000005
36.937,35.325,36.402,34.99,34.163000000000004,34.101
36.851,35.318000000000005,36.348,34.966,34.135,34.064
36.773,35.308,36.297,34.941,34.107,34.027
36.705,35.294000000000004,36.251999999999995,34.916,34.078,33.992
36.647,35.277,36.213,34.891,34.049,33.958
36.599000000000004,35.256,36.18,34.867,34.022,33.925
36.56,35.232,36.154,34.843,33.997,33.894
36.53,35.205,36.134,34.821,33.974000000000004,33.864000000000004
36.509,35.174,36.12,34.802,33.955,33.836
36.495,35.14,36.111,34.785,33.938,33.808
36.488,35.103,36.106,34.77,33.925,33.781
36.485,35.063,36.103,34.757,33.915,33.755
36.488,35.019,36.103,34.746,33.907,33.729
36.493,34.974000000000004,36.103,34.736999999999995,33.900999999999996,33.701
36.501999999999995,34.927,36.103,34.729,33.897,33.672
36.513000000000005,34.878,36.105,34.724000000000004,33.894,33.64
36.525999999999996,34.829,36.108000000000004,34.719,33.893,33.606
36.541,34.779,36.113,34.714,33.891999999999996,33.57
36.556,34.728,36.119,34.707,33.891999999999996,33.533
36.571,34.675,36.126,34.698,33.891999999999996,33.495
36.585,34.622,36.133,34.684,33.891,33.458
36.599000000000004,34.568000000000005,36.14,34.667,33.888000000000005,33.422
36.611,34.514,36.148,34.645,33.885,33.385999999999996
36.621,34.461999999999996,36.158,34.62,33.88,33.35
36.629,34.411,36.168,34.593,33.874,33.316
36.635999999999996,34.361,36.18,34.565,33.867,33.282
36.64,34.313,36.192,34.538000000000004,33.858000000000004,33.249
36.641999999999996,34.266,36.203,34.514,33.847,33.214
36.639,34.22,36.213,34.494,33.833,33.179
36.633,34.174,36.221,34.48,33.815,33.141999999999996
36.622,34.128,36.226,34.47,33.794000000000004,33.105
36.605,34.083,36.227,34.464,33.77,33.068000000000005
36.583,34.039,36.223,34.461,33.746,33.032
36.555,33.996,36.215,34.459,33.72,32.996
36.521,33.953,36.202,34.459,33.695,32.961999999999996
36.481,33.911,36.184,34.459,33.669000000000004,32.93
36.437,33.869,36.162,34.459,33.641999999999996,32.9
36.388000000000005,33.826,36.137,34.46,33.614000000000004,32.872
36.336,33.782,36.109,34.461,33.586,32.846
36.281,33.736999999999995,36.079,34.464,33.559,32.823
36.224000000000004,33.691,36.048,34.468,33.537,32.804
36.163000000000004,33.646,36.014,34.476,33.521,32.79
36.101,33.603,35.979,34.486999999999995,33.512,32.781
36.037,33.562,35.941,34.504,33.512,32.78
35.972,33.525,35.900999999999996,34.529,33.519,32.787
35.904,33.49,35.86,34.566,33.533,32.802
35.835,33.459,35.819,34.616,33.556,32.826
35.765,33.433,35.78,34.679,33.586999999999996,32.857
35.694,33.411,35.742,34.756,33.628,32.897
35.623000000000005,33.393,35.705,34.845,33.68,32.946999999999996
35.551,33.38,35.67,34.943000000000005,33.744,33.006
35.479,33.37,35.635999999999996,35.049,33.82,33.075
35.407,33.364000000000004,35.602,35.16,33.907,33.156
35.336999999999996,33.361,35.568000000000005,35.275999999999996,34.006,33.247
35.269,33.358000000000004,35.534,35.396,34.115,33.348
35.202,33.356,35.499,35.518,34.234,33.457
35.138000000000005,33.353,35.463,35.641999999999996,34.361,33.574
35.075,33.35,35.425,35.765,34.495,33.698
35.015,33.349000000000004,35.388000000000005,35.885,34.634,33.828
34.957,33.349000000000004,35.35,36.001999999999995,34.777,33.964
34.902,33.348,35.313,36.114000000000004,34.92,34.104
34.849000000000004,33.348,35.277,36.219,35.063,34.246
34.799,33.345,35.243,36.318000000000005,35.204,34.385999999999996
34.751,33.341,35.21,36.409,35.341,34.524
34.707,33.335,35.179,36.494,35.472,34.658
34.664,33.329,35.149,36.571,35.596,34.787
34.624,33.321999999999996,35.119,36.641,35.713,34.911
34.585,33.317,35.09,36.703,35.821,35.028
34.547,33.313,35.061,36.755,35.92,35.137
34.51,33.309,35.032,36.799,36.010999999999996,35.238
34.472,33.306,35.004,36.833,36.091,35.332
34.434,33.301,34.977,36.857,36.162,35.417
34.397,33.294000000000004,34.95,36.871,36.224000000000004,35.493
34.36,33.283,34.923,36.876999999999995,36.275,35.561
34.324,33.269,34.897,36.874,36.317,35.621
34.29,33.253,34.871,36.864000000000004,36.35,35.673
34.258,33.234,34.845,36.846,36.375,35.718
34.229,33.215,34.821,36.821999999999996,36.391,35.756
34.202,33.196999999999996,34.799,36.792,36.399,35.786
34.179,33.179,34.78,36.759,36.4,35.809
34.159,33.16,34.763000000000005,36.723,36.395,35.823
34.143,33.141,34.747,36.686,36.387,35.83
34.131,33.123000000000005,34.734,36.649,36.376,35.832
34.121,33.104,34.722,36.613,36.361999999999995,35.83
34.113,33.086,34.711,36.577,36.346,35.824
34.106,33.068000000000005,34.701,36.542,36.326,35.815
34.1,33.051,34.69,36.507,36.304,35.802
34.094,33.034,34.68,36.471,36.28,35.787
34.088,33.018,34.668,36.434,36.254,35.769
34.080999999999996,33.001999999999995,34.656,36.395,36.229,35.75
34.074,32.986,34.641999999999996,36.353,36.205999999999996,35.729
34.066,32.969,34.626999999999995,36.311,36.184,35.705999999999996
34.058,32.951,34.611,36.266999999999996,36.164,35.683
34.05,32.931999999999995,34.594,36.223,36.145,35.657
34.041,32.913000000000004,34.576,36.178000000000004,36.126999999999995,35.632
34.034,32.893,34.559,36.135,36.108000000000004,35.605
34.027,32.872,34.542,36.092,36.091,35.578
34.021,32.849000000000004,34.525999999999996,36.05,36.075,35.551
34.015,32.825,34.51,36.01,36.058,35.524
34.009,32.797,34.495,35.971,36.042,35.496
34.003,32.768,34.48,35.935,36.025,35.468
33.996,32.736,34.465,35.902,36.007,35.438
33.988,32.702,34.451,35.871,35.989000000000004,35.406
33.979,32.669000000000004,34.438,35.842,35.97,35.372
33.969,32.635999999999996,34.425,35.815,35.949,35.336
33.958,32.606,34.413000000000004,35.789,35.927,35.297
33.946999999999996,32.580999999999996,34.400999999999996,35.763000000000005,35.903,35.256
33.934,32.562,34.388000000000005,35.736999999999995,35.876,35.214
33.921,32.552,34.375,35.71,35.846,35.17
33.906,32.553000000000004,34.359,35.685,35.808,35.124
33.891,32.566,34.343,35.663000000000004,35.76,35.077
33.875,32.595,34.325,35.645,35.704,35.027
33.859,32.64,34.306,35.634,35.644,34.976
33.842,32.705,34.285,35.629,35.582,34.925
33.824,32.791,34.263000000000005,35.632,35.523,34.876
33.806,32.899,34.239000000000004,35.643,35.47,34.830999999999996
33.787,33.028,34.215,35.66,35.426,34.791
33.766,33.178000000000004,34.191,35.683,35.393,34.756
33.744,33.348,34.165,35.711,35.37,34.725
33.722,33.536,34.141,35.743,35.359,34.698
33.698,33.74,34.116,35.777,35.359,34.677
33.674,33.955999999999996,34.093,35.812,35.368,34.66
33.648,34.181999999999995,34.069,35.846,35.387,34.647
33.62,34.414,34.047,35.876,35.414,34.64
33.589,34.649,34.025,35.904,35.446999999999996,34.635999999999996
33.556,34.884,34.005,35.929,35.484,34.635
33.521,35.114000000000004,33.986,35.95,35.522,34.637
33.484,35.336999999999996,33.969,35.969,35.559,34.64
33.446,35.549,33.952,35.984,35.594,34.643
33.406,35.751,33.934,35.997,35.626999999999995,34.647
33.367,35.938,33.916,36.009,35.656,34.65
33.329,36.111,33.896,36.02,35.681999999999995,34.652
33.294000000000004,36.268,33.874,36.031,35.704,34.652
33.264,36.409,33.85,36.04,35.722,34.65
33.24,36.533,33.825,36.049,35.736,34.644
33.227,36.639,33.8,36.056,35.744,34.634
33.226,36.729,33.775,36.061,35.749,34.621
33.243,36.803000000000004,33.749,36.064,35.75,34.603
33.28,36.861999999999995,33.724000000000004,36.064,35.75,34.580999999999996
33.342,36.908,33.699,36.063,35.747,34.558
33.43,36.941,33.675,36.058,35.744,34.532
33.546,36.961999999999996,33.655,36.052,35.739000000000004,34.505
33.692,36.972,33.64,36.043,35.731,34.474000000000004
33.867,36.973,33.631,36.031,35.721,34.44
34.071,36.963,33.631,36.016999999999996,35.708,34.403
34.302,36.944,33.639,35.998000000000005,35.692,34.364000000000004
34.558,36.916,33.658,35.976,35.675,34.325
34.836,36.879,33.687,35.951,35.657,34.288000000000004
35.131,36.835,33.729,35.923,35.638000000000005,34.251999999999995
35.441,36.785,33.784,35.893,35.618,34.218
35.76,36.728,33.854,35.861,35.598,34.186
36.085,36.667,33.938,35.827,35.578,34.156
36.411,36.601,34.037,35.792,35.556999999999995,34.126999999999995
36.734,36.532,34.150999999999996,35.756,35.537,34.1
37.049,36.459,34.28,35.72,35.515,34.076
37.353,36.385,34.423,35.681999999999995,35.494,34.054
37.641999999999996,36.311,34.578,35.645,35.471,34.032
37.912,36.238,34.747,35.607,35.448,34.010999999999996
38.162,36.167,34.927,35.57,35.424,33.991
38.388000000000005,36.098,35.117,35.535,35.4,33.969
38.59,36.031,35.314,35.5,35.375,33.946
38.765,35.966,35.513000000000005,35.465,35.352,33.921
38.914,35.903,35.713,35.43,35.329,33.895
39.037,35.841,35.911,35.395,35.306,33.865
39.133,35.78,36.104,35.36,35.284,33.834
39.205999999999996,35.721,36.289,35.324,35.263000000000005,33.801
39.255,35.663000000000004,36.465,35.288000000000004,35.241,33.765
39.283,35.605,36.63,35.253,35.218,33.728
39.293,35.547,36.781,35.219,35.195,33.69
39.285,35.488,36.917,35.185,35.171,33.652
39.264,35.428000000000004,37.037,35.152,35.147,33.614000000000004
39.23,35.367,37.141,35.119,35.122,33.579
39.185,35.304,37.23,35.086999999999996,35.096,33.545
39.131,35.241,37.303000000000004,35.055,35.071,33.514
39.069,35.179,37.361999999999995,35.023,35.044000000000004,33.484
39.0,35.117,37.408,34.99,35.016999999999996,33.457
38.926,35.056,37.441,34.959,34.99,33.43
38.847,34.997,37.463,34.929,34.963,33.407
38.763000000000005,34.941,37.475,34.903,34.937,33.388000000000005
38.676,34.887,37.478,34.882,34.914,33.373000000000005
38.586,34.836,37.475,34.864000000000004,34.895,33.361999999999995
38.494,34.789,37.466,34.85,34.878,33.354
38.4,34.746,37.454,34.839,34.865,33.348
38.306,34.709,37.44,34.829,34.854,33.343
38.211,34.678000000000004,37.424,34.82,34.846,33.336999999999996
38.118,34.654,37.408,34.809,34.842,33.33
38.025,34.637,37.391999999999996,34.797,34.841,33.323
37.931,34.626999999999995,37.376,34.782,34.843,33.315
37.836999999999996,34.623000000000005,37.36,34.765,34.845,33.306999999999995
37.742,34.626,37.345,34.747,34.847,33.298
37.645,34.634,37.329,34.729,34.849000000000004,33.287
37.546,34.647,37.312,34.709,34.85,33.273
37.446,34.665,37.295,34.687,34.849000000000004,33.257
37.344,34.686,37.275999999999996,34.664,34.847,33.239000000000004
37.241,34.71,37.256,34.639,34.844,33.218
37.135999999999996,34.736,37.235,34.613,34.843,33.196
37.032,34.763000000000005,37.211999999999996,34.588,34.843,33.173
36.928000000000004,34.79,37.189,34.564,34.844,33.149
36.826,34.815,37.164,34.541,34.849000000000004,33.125
36.726,34.838,37.138000000000005,34.519,34.855,33.101
36.628,34.857,37.109,34.497,34.864000000000004,33.079
36.533,34.875,37.078,34.476,34.874,33.06
36.443000000000005,34.89,37.045,34.455999999999996,34.887,33.044000000000004
36.359,34.900999999999996,37.010999999999996,34.436,34.900999999999996,33.032
36.281,34.909,36.975,34.418,34.916,33.024
36.211,34.912,36.939,34.402,34.931,33.021
36.149,34.911,36.903,34.389,34.946,33.021
36.096,34.905,36.866,34.38,34.961,33.025
36.052,34.894,36.828,34.375,34.974000000000004,33.032
36.018,34.878,36.789,34.375,34.986,33.039
35.994,34.857,36.749,34.381,34.997,33.048
35.98,34.832,36.709,34.393,35.006,33.056
35.975,34.803000000000004,36.668,34.412,35.013000000000005,33.063
35.98,34.772,36.626999999999995,34.439,35.019,33.066
35.993,34.739000000000004,36.585,34.475,35.023,33.067
36.014,34.705999999999996,36.543,34.521,35.024,33.063
36.041,34.673,36.499,34.579,35.024,33.056
36.074,34.641999999999996,36.453,34.649,35.022,33.046
36.111,34.613,36.407,34.731,35.018,33.034
36.150999999999996,34.585,36.361999999999995,34.825,35.015,33.024
36.194,34.558,36.319,34.929,35.013000000000005,33.016999999999996
36.236999999999995,34.53,36.279,35.043,35.013000000000005,33.015
36.281,34.503,36.242,35.166,35.015,33.021
36.325,34.474000000000004,36.21,35.296,35.02,33.035
36.367,34.443000000000005,36.181999999999995,35.433,35.028,33.06
36.406,34.411,36.16,35.576,35.037,33.096
36.444,34.376999999999995,36.144,35.723,35.05,33.144
36.479,34.341,36.133,35.871,35.066,33.207
36.510999999999996,34.303000000000004,36.129,36.021,35.088,33.284
36.54,34.263000000000005,36.13,36.168,35.117,33.375
36.565,34.221,36.138000000000005,36.312,35.156,33.479
36.584,34.177,36.15,36.45,35.204,33.596
36.597,34.131,36.166,36.580999999999996,35.264,33.722
36.603,34.083,36.185,36.703,35.335,33.856
36.601,34.034,36.205,36.816,35.418,33.997
36.592,33.983000000000004,36.226,36.92,35.513000000000005,34.141999999999996
36.577,33.931,36.246,37.013000000000005,35.618,34.289
36.558,33.88,36.262,37.095,35.733000000000004,34.436
36.535,33.83,36.275,37.166,35.857,34.582
36.509,33.782,36.284,37.226,35.986999999999995,34.723
36.48,33.736,36.287,37.273,36.122,34.86
36.446999999999996,33.692,36.285,37.309,36.26,34.99
36.412,33.65,36.278,37.333,36.399,35.113
36.374,33.61,36.266999999999996,37.348,36.538000000000004,35.229
36.333,33.571999999999996,36.251999999999995,37.355,36.676,35.336999999999996
36.292,33.538000000000004,36.233000000000004,37.354,36.811,35.436
36.249,33.507,36.211999999999996,37.347,36.942,35.524
36.205999999999996,33.479,36.189,37.336,37.067,35.602
36.161,33.454,36.164,37.32,37.183,35.668
36.116,33.433,36.137,37.3,37.29,35.723
36.069,33.413000000000004,36.109,37.275999999999996,37.385999999999996,35.768
36.021,33.396,36.08,37.249,37.47,35.804
35.972,33.379,36.052,37.219,37.542,35.832
35.921,33.363,36.025,37.185,37.602,35.854
35.867,33.346,35.999,37.149,37.65,35.868
35.811,33.329,35.975,37.111999999999995,37.685,35.876
35.751999999999995,33.311,35.951,37.073,37.708,35.878
35.692,33.292,35.927,37.035,37.719,35.875
35.629,33.272,35.902,36.998000000000005,37.72,35.868
35.565,33.251,35.876,36.963,37.711,35.858000000000004
35.5,33.231,35.849000000000004,36.931,37.695,35.846
35.434,33.211999999999996,35.819,36.902,37.672,35.832
35.367,33.195,35.788000000000004,36.876999999999995,37.644,35.817
35.301,33.18,35.754,36.855,37.611,35.8
35.234,33.167,35.717,36.836,37.574,35.782
35.168,33.157,35.677,36.819,37.533,35.763000000000005
35.104,33.15,35.637,36.803000000000004,37.489000000000004,35.744
35.041,33.145,35.596,36.786,37.442,35.723
34.98,33.141,35.556999999999995,36.769,37.391999999999996,35.7
34.92,33.139,35.518,36.75,37.338,35.675
34.861999999999995,33.138000000000005,35.479,36.731,37.282,35.647
34.806,33.137,35.44,36.71,37.222,35.616
34.751999999999995,33.137,35.4,36.688,37.16,35.582
34.701,33.138000000000005,35.36,36.665,37.096,35.546
34.653,33.139,35.319,36.641,37.03,35.507
34.608000000000004,33.139,35.279,36.616,36.965,35.468
34.566,33.138000000000005,35.239000000000004,36.59,36.900999999999996,35.427
34.527,33.135,35.201,36.564,36.838,35.384
34.49,33.129,35.163000000000004,36.537,36.779,35.339
34.455,33.122,35.126,36.510999999999996,36.721,35.291
34.42,33.113,35.088,36.486,36.666,35.24
34.388000000000005,33.105,35.051,36.463,36.611999999999995,35.186
34.357,33.098,35.015,36.442,36.561,35.128
34.328,33.093,34.98,36.424,36.512,35.067
34.303000000000004,33.09,34.946999999999996,36.409,36.465,35.003
34.282,33.088,34.916,36.397,36.42,34.937
34.263000000000005,33.086,34.885,36.388000000000005,36.376,34.869
34.248000000000005,33.083,34.852,36.382,36.333,34.802
34.235,33.079,34.816,36.378,36.291,34.735
34.225,33.075,34.775999999999996,36.376999999999995,36.248000000000005,34.671
34.218,33.068000000000005,34.733000000000004,36.379,36.204,34.611999999999995
34.213,33.06,34.689,36.384,36.158,34.558
34.21,33.05,34.643,36.391,36.111999999999995,34.510999999999996
34.209,33.038000000000004,34.6,36.400999999999996,36.065,34.472
34.21,33.023,34.559,36.413000000000004,36.018,34.44
34.213,33.007,34.522,36.425,35.97,34.414
34.217,32.989000000000004,34.491,36.437,35.921,34.394
34.223,32.97,34.466,36.446999999999996,35.87,34.38
34.231,32.949,34.446,36.455999999999996,35.82,34.373000000000005
34.242,32.929,34.431999999999995,36.463,35.773,34.37
34.254,32.907,34.421,36.468,35.728,34.373000000000005
34.268,32.885,34.414,36.47,35.688,34.38
34.284,32.861999999999995,34.41,36.47,35.653,34.389
34.302,32.838,34.407,36.467,35.624,34.398
34.32,32.814,34.404,36.461,35.6,34.409
34.339,32.789,34.4,36.453,35.580999999999996,34.42
34.357,32.763000000000005,34.394,36.442,35.567,34.431
34.374,32.738,34.387,36.429,35.558,34.442
34.388000000000005,32.713,34.38,36.412,35.552,34.453
34.399,32.689,34.372,36.393,35.55,34.463
34.407,32.667,34.363,36.372,35.551,34.471
34.411,32.646,34.353,36.35,35.554,34.477
34.41,32.626,34.342,36.326,35.558,34.481
34.405,32.605,34.328,36.301,35.562,34.483000000000004
34.395,32.583,34.313,36.274,35.568000000000005,34.482
34.38,32.558,34.298,36.245,35.574,34.479
34.361,32.533,34.281,36.215,35.582,34.474000000000004
34.338,32.507,34.264,36.183,35.592,34.467
34.311,32.483000000000004,34.247,36.15,35.603,34.459
34.281,32.463,34.23,36.115,35.615,34.45
34.249,32.448,34.213,36.079,35.629,34.44
34.214,32.44,34.196999999999996,36.041,35.641999999999996,34.43
34.176,32.44,34.181,36.003,35.657,34.42
34.137,32.45,34.165,35.964,35.671,34.41
34.097,32.47,34.15,35.924,35.685,34.400999999999996
34.055,32.504,34.135,35.883,35.699,34.391
34.012,32.552,34.119,35.842,35.711999999999996,34.38
33.969,32.618,34.104,35.799,35.724000000000004,34.367
33.926,32.702,34.089,35.757,35.732,34.352
33.884,32.806,34.073,35.716,35.735,34.334
33.841,32.931,34.058,35.678000000000004,35.732,34.313
33.801,33.076,34.042,35.641999999999996,35.722,34.291
33.762,33.241,34.025,35.608000000000004,35.705999999999996,34.266999999999996
33.727,33.425,34.009,35.576,35.684,34.241
33.696999999999996,33.624,33.991,35.544000000000004,35.656,34.213
33.673,33.836999999999996,33.973,35.510999999999996,35.622,34.184
33.659,34.059,33.954,35.477,35.580999999999996,34.153
33.657,34.288000000000004,33.934,35.442,35.534,34.122
33.67,34.52,33.914,35.406,35.481,34.09
33.702,34.75,33.894,35.37,35.424,34.058
33.756,34.976,33.875,35.335,35.364000000000004,34.027
33.836,35.196,33.858000000000004,35.301,35.303000000000004,33.996
33.945,35.405,33.842,35.268,35.244,33.964
34.084,35.603,33.825,35.236999999999995,35.186,33.931999999999995
34.255,35.787,33.809,35.209,35.131,33.899
34.455999999999996,35.955,33.792,35.181999999999995,35.079,33.866
34.687,36.106,33.773,35.159,35.03,33.833
34.945,36.239000000000004,33.754,35.137,34.983000000000004,33.8
35.227,36.353,33.733000000000004,35.117,34.939,33.769
35.529,36.449,33.711,35.098,34.897,33.736999999999995
35.846,36.527,33.688,35.08,34.858000000000004,33.705999999999996
36.173,36.586999999999996,33.664,35.062,34.821,33.675
36.506,36.632,33.64,35.043,34.786,33.643
36.839,36.662,33.616,35.023,34.751999999999995,33.611999999999995
37.168,36.679,33.593,35.001999999999995,34.72,33.582
37.488,36.683,33.57,34.98,34.689,33.551
37.796,36.676,33.548,34.959,34.66,33.522
38.089,36.659,33.524,34.939,34.634,33.492
38.363,36.633,33.501,34.921,34.61,33.463
38.616,36.599000000000004,33.476,34.908,34.589,33.431999999999995
38.847,36.559,33.452,34.897,34.571,33.402
39.054,36.515,33.428000000000004,34.89,34.556999999999995,33.37
39.236999999999995,36.466,33.405,34.885999999999996,34.546,33.339
39.396,36.415,33.385,34.884,34.537,33.308
39.532,36.36,33.368,34.884,34.528,33.279
39.644,36.302,33.356,34.885,34.519,33.25
39.735,36.241,33.35,34.885999999999996,34.508,33.223
39.805,36.177,33.352,34.885999999999996,34.496,33.196
39.856,36.109,33.364000000000004,34.885,34.48,33.17
39.889,36.038000000000004,33.388000000000005,34.882,34.461999999999996,33.145
39.909,35.964,33.425,34.878,34.442,33.12
39.916,35.89,33.478,34.871,34.42,33.098
39.911,35.815,33.548,34.861999999999995,34.398,33.076
39.895,35.742,33.635999999999996,34.85,34.375,33.056
39.87,35.669000000000004,33.742,34.836999999999996,34.353,33.037
39.835,35.596,33.865,34.821999999999996,34.332,33.018
39.791,35.524,34.006,34.808,34.31,33.0
39.738,35.452,34.161,34.793,34.288000000000004,32.983000000000004
39.678000000000004,35.38,34.330999999999996,34.779,34.266,32.968
39.611999999999995,35.31,34.513000000000005,34.764,34.242,32.955999999999996
39.54,35.243,34.707,34.749,34.218,32.946
39.464,35.18,34.908,34.732,34.194,32.938
39.385999999999996,35.119,35.115,34.715,34.171,32.931
39.306999999999995,35.062,35.324,34.695,34.150999999999996,32.923
39.228,35.006,35.533,34.674,34.132,32.915
39.149,34.953,35.738,34.650999999999996,34.115,32.906
39.07,34.900999999999996,35.938,34.626,34.099000000000004,32.894
38.989000000000004,34.85,36.13,34.6,34.082,32.881
38.908,34.801,36.313,34.574,34.065,32.866
38.825,34.755,36.484,34.547,34.047,32.849000000000004
38.74,34.711,36.641,34.522,34.03,32.83
38.654,34.671,36.783,34.501,34.015,32.809
38.567,34.635,36.908,34.485,34.001,32.787
38.479,34.603,37.016,34.476,33.986999999999995,32.766
38.391999999999996,34.576,37.107,34.477,33.974000000000004,32.745
38.306999999999995,34.554,37.181999999999995,34.49,33.959,32.726
38.224000000000004,34.538000000000004,37.24,34.519,33.942,32.708
38.143,34.527,37.284,34.563,33.924,32.692
38.062,34.522,37.315,34.623000000000005,33.906,32.677
37.981,34.521,37.335,34.699,33.889,32.664
37.898,34.525,37.343,34.789,33.873000000000005,32.652
37.812,34.533,37.344,34.893,33.858000000000004,32.641
37.724000000000004,34.546,37.336999999999996,35.009,33.845,32.63
37.634,34.565,37.326,35.135999999999996,33.834,32.619
37.541,34.589,37.311,35.271,33.826,32.607
37.449,34.618,37.294000000000004,35.413000000000004,33.821999999999996,32.595
37.358000000000004,34.654,37.274,35.56,33.823,32.582
37.27,34.694,37.254,35.71,33.830999999999996,32.567
37.187,34.738,37.233000000000004,35.861,33.845,32.55
37.111999999999995,34.784,37.21,36.012,33.867,32.532
37.045,34.832,37.185,36.161,33.898,32.513000000000005
36.986999999999995,34.88,37.159,36.306999999999995,33.94,32.494
36.941,34.925,37.132,36.449,33.994,32.475
36.904,34.965,37.104,36.586,34.059,32.458
36.878,35.0,37.075,36.717,34.138000000000005,32.444
36.861,35.029,37.047,36.839,34.23,32.44
36.852,35.052,37.02,36.952,34.336,32.448
36.851,35.069,36.994,37.054,34.453,32.469
36.857,35.078,36.97,37.143,34.58,32.504
36.867,35.080999999999996,36.949,37.219,34.718,32.552
36.882,35.077,36.929,37.281,34.863,32.611999999999995
36.899,35.067,36.91,37.33,35.014,32.681
36.917,35.052,36.891999999999996,37.366,35.169000000000004,32.757
36.935,35.034,36.874,37.391,35.326,32.84
36.953,35.013000000000005,36.853,37.407,35.482,32.927
36.971,34.992,36.832,37.415,35.637,33.019
36.989000000000004,34.969,36.808,37.416,35.787,33.116
37.006,34.945,36.782,37.413000000000004,35.931999999999995,33.217
37.021,34.919000000000004,36.754,37.404,36.071,33.324
37.032,34.891,36.722,37.391,36.2,33.436
37.039,34.861,36.686,37.373000000000005,36.321999999999996,33.553000000000004
37.039,34.828,36.647,37.353,36.433,33.676
37.033,34.794000000000004,36.603,37.33,36.535,33.805
37.021,34.758,36.556999999999995,37.304,36.626999999999995,33.941
37.001999999999995,34.721,36.508,37.275999999999996,36.708,34.080999999999996
36.977,34.683,36.457,37.245,36.777,34.226
36.945,34.644,36.404,37.211999999999996,36.834,34.373000000000005
36.908,34.604,36.351,37.176,36.878,34.522
36.866,34.564,36.299,37.139,36.91,34.671
36.819,34.522,36.248000000000005,37.1,36.933,34.819
36.77,34.478,36.201,37.06,36.946999999999996,34.963
36.718,34.434,36.157,37.019,36.954,35.102
36.664,34.39,36.119,36.98,36.954,35.235
36.609,34.344,36.086999999999996,36.942,36.946999999999996,35.361999999999995
36.554,34.298,36.06,36.904,36.933,35.48
36.498000000000005,34.251999999999995,36.039,36.868,36.913000000000004,35.59
36.443000000000005,34.205,36.022,36.83,36.889,35.689
36.388000000000005,34.158,36.008,36.791,36.863,35.777
36.332,34.111999999999995,35.997,36.75,36.835,35.852
36.277,34.066,35.989000000000004,36.707,36.806999999999995,35.913000000000004
36.22,34.021,35.984,36.662,36.781,35.963
36.161,33.978,35.982,36.616,36.755,36.001
36.1,33.936,35.983000000000004,36.569,36.731,36.03
36.036,33.896,35.985,36.522,36.708,36.05
35.97,33.858000000000004,35.988,36.474000000000004,36.687,36.063
35.9,33.821999999999996,35.993,36.427,36.668,36.069
35.828,33.788000000000004,35.997,36.38,36.650999999999996,36.069
35.755,33.755,36.003,36.334,36.635,36.066
35.681,33.725,36.009,36.291,36.62,36.059
35.607,33.696,36.016,36.25,36.604,36.05
35.534,33.669000000000004,36.022,36.211999999999996,36.588,36.038000000000004
35.463,33.643,36.028,36.179,36.571,36.025999999999996
35.393,33.618,36.033,36.148,36.552,36.012
35.324,33.594,36.036,36.121,36.53,35.999
35.258,33.571,36.039,36.097,36.506,35.985
35.193000000000005,33.548,36.041,36.076,36.477,35.973
35.131,33.525,36.04,36.056,36.446,35.961
35.071999999999996,33.501999999999995,36.038000000000004,36.037,36.411,35.951
35.015,33.48,36.032,36.021,36.372,35.943000000000005
34.96,33.459,36.025,36.008,36.33,35.937
34.909,33.441,36.016,35.998000000000005,36.284,35.933
34.861,33.423,36.006,35.992,36.236999999999995,35.929
34.815,33.406,35.994,35.989000000000004,36.188,35.925
34.773,33.39,35.98,35.99,36.139,35.921
34.733000000000004,33.375,35.964,35.993,36.091,35.917
34.696,33.361999999999995,35.946999999999996,35.999,36.044000000000004,35.913000000000004
34.661,33.35,35.928000000000004,36.006,35.996,35.91
34.628,33.34,35.906,36.015,35.949,35.904
34.596,33.332,35.881,36.025,35.904,35.896
34.567,33.326,35.853,36.036,35.863,35.885
34.54,33.323,35.823,36.048,35.827,35.87
34.515,33.321,35.79,36.061,35.796,35.851
34.492,33.32,35.755,36.073,35.772,35.828
34.47,33.319,35.718,36.083,35.753,35.801
34.45,33.319,35.678000000000004,36.092,35.736,35.771
34.431,33.319,35.635999999999996,36.096,35.722,35.738
34.412,33.319,35.591,36.097,35.71,35.702
34.393,33.32,35.544000000000004,36.093,35.701,35.665
34.374,33.32,35.494,36.084,35.696,35.628
34.356,33.319,35.444,36.071999999999996,35.693000000000005,35.591
34.338,33.318000000000005,35.391999999999996,36.056,35.693000000000005,35.555
34.321,33.315,35.341,36.037,35.696999999999996,35.521
34.303000000000004,33.311,35.292,36.015,35.704,35.489000000000004
34.285,33.304,35.245,35.99,35.711999999999996,35.461
34.266,33.296,35.2,35.963,35.723,35.437
34.246,33.287,35.158,35.934,35.736,35.416
34.225,33.277,35.12,35.904,35.751,35.4
34.202,33.266,35.086999999999996,35.874,35.766999999999996,35.388000000000005
34.178000000000004,33.254,35.06,35.845,35.783,35.381
34.154,33.24,35.036,35.815,35.797,35.379
34.129,33.226,35.015,35.787,35.808,35.38
34.105,33.211,34.995,35.758,35.815,35.384
34.080999999999996,33.196,34.975,35.73,35.818000000000005,35.39
34.056999999999995,33.18,34.955,35.701,35.817,35.395
34.035,33.165,34.933,35.672,35.811,35.399
34.013000000000005,33.149,34.909,35.641999999999996,35.801,35.402
33.993,33.134,34.882,35.613,35.787,35.404
33.974000000000004,33.118,34.854,35.584,35.769,35.406
33.955999999999996,33.101,34.823,35.555,35.749,35.406
33.939,33.082,34.79,35.527,35.725,35.405
33.924,33.061,34.755,35.499,35.699,35.403
33.908,33.037,34.718,35.47,35.67,35.399
33.894,33.010999999999996,34.681,35.44,35.638000000000005,35.393
33.879,32.985,34.645,35.409,35.604,35.385999999999996
33.864000000000004,32.958,34.609,35.376,35.568000000000005,35.378
33.848,32.931,34.575,35.342,35.531,35.367
33.829,32.907,34.542,35.306999999999995,35.491,35.355
33.806999999999995,32.884,34.51,35.27,35.45,35.341
33.781,32.864000000000004,34.481,35.231,35.408,35.323
33.751999999999995,32.847,34.453,35.19,35.366,35.303000000000004
33.718,32.832,34.428000000000004,35.148,35.325,35.281
33.679,32.823,34.405,35.105,35.284,35.256
33.637,32.819,34.383,35.062,35.245,35.227
33.59,32.824,34.361999999999995,35.023,35.205999999999996,35.195
33.541,32.839,34.342,34.986999999999995,35.169000000000004,35.16
33.489000000000004,32.866,34.321,34.957,35.132,35.123000000000005
33.438,32.907,34.3,34.931999999999995,35.095,35.083
33.387,32.964,34.279,34.913000000000004,35.056999999999995,35.04
33.336999999999996,33.038000000000004,34.259,34.897,35.021,34.994
33.289,33.131,34.241,34.884,34.986,34.944
33.244,33.243,34.224000000000004,34.872,34.952,34.89
33.202,33.374,34.208,34.86,34.921,34.835
33.164,33.525,34.193000000000005,34.845,34.89,34.777
33.13,33.692,34.178000000000004,34.828,34.86,34.719
33.098,33.875,34.164,34.806999999999995,34.83,34.659
33.071,34.07,34.150999999999996,34.785,34.801,34.597
33.046,34.274,34.138000000000005,34.760999999999996,34.772,34.536
33.023,34.485,34.125,34.736999999999995,34.744,34.474000000000004
33.001999999999995,34.699,34.114000000000004,34.714,34.719,34.413000000000004
32.983000000000004,34.914,34.103,34.692,34.695,34.354
32.966,35.126999999999995,34.093,34.671,34.672,34.297
32.953,35.334,34.084,34.650999999999996,34.648,34.242
32.945,35.535,34.074,34.631,34.624,34.188
32.943000000000005,35.725,34.064,34.611,34.599000000000004,34.135
32.951,35.904,34.053000000000004,34.592,34.571999999999996,34.084
32.973,36.071,34.041,34.573,34.544000000000004,34.033
33.01,36.223,34.027,34.554,34.516,33.983000000000004
33.068000000000005,36.36,34.012,34.535,34.486999999999995,33.933
33.149,36.482,33.995,34.516,34.459,33.883
33.258,36.59,33.977,34.496,34.431,33.833
33.396,36.681,33.957,34.477,34.404,33.781
33.565,36.758,33.935,34.458,34.378,33.727
33.765,36.818000000000005,33.913000000000004,34.438,34.354,33.671
33.997,36.863,33.889,34.418,34.332,33.614000000000004
34.259,36.891999999999996,33.866,34.399,34.313,33.556
34.548,36.907,33.843,34.38,34.297,33.5
34.861999999999995,36.908,33.821,34.363,34.284,33.445
35.195,36.897,33.798,34.346,34.274,33.393
35.543,36.874,33.775999999999996,34.33,34.266999999999996,33.343
35.9,36.843,33.754,34.314,34.260999999999996,33.296
36.26,36.804,33.734,34.297,34.258,33.253
36.62,36.759,33.714,34.281,34.256,33.214
36.973,36.71,33.695,34.263000000000005,34.254,33.181
37.315,36.656,33.678000000000004,34.245,34.254,33.154
37.641999999999996,36.599000000000004,33.661,34.227,34.253,33.134
37.95,36.54,33.645,34.209,34.251999999999995,33.119
38.236999999999995,36.479,33.629,34.191,34.249,33.107
38.499,36.418,33.613,34.174,34.246,33.098
38.736,36.358000000000004,33.596,34.157,34.24,33.089
38.946999999999996,36.298,33.580999999999996,34.139,34.234,33.079
39.132,36.239000000000004,33.567,34.119,34.226,33.068000000000005
39.291,36.181,33.554,34.098,34.216,33.054
39.425,36.123000000000005,33.541,34.074,34.204,33.04
39.534,36.064,33.529,34.049,34.19,33.023
39.62,36.006,33.516,34.023,34.173,33.003
39.685,35.948,33.503,33.997,34.156,32.981
39.729,35.891,33.489000000000004,33.97,34.139,32.955
39.756,35.836,33.474000000000004,33.943000000000005,34.121,32.926
39.766,35.782,33.457,33.917,34.103,32.896
39.763000000000005,35.729,33.438,33.89,34.086999999999996,32.867
39.747,35.677,33.416,33.863,34.073,32.838
39.721,35.625,33.391,33.836999999999996,34.06,32.812
39.685,35.575,33.364000000000004,33.812,34.049,32.786
39.639,35.525999999999996,33.336,33.788000000000004,34.038000000000004,32.76
39.584,35.478,33.306,33.765,34.029,32.734
39.521,35.431,33.275,33.744,34.023,32.707
39.454,35.385,33.245,33.725,34.018,32.679
39.382,35.34,33.216,33.711999999999996,34.015,32.650999999999996
39.308,35.295,33.19,33.704,34.014,32.623000000000005
39.234,35.25,33.167,33.704,34.014,32.597
39.159,35.205999999999996,33.146,33.714,34.016,32.573
39.086,35.162,33.129,33.736,34.019,32.551
39.014,35.12,33.117,33.77,34.023,32.532
38.945,35.08,33.111,33.82,34.03,32.516999999999996
38.876999999999995,35.043,33.111,33.885,34.041,32.505
38.81,35.01,33.12,33.964,34.056999999999995,32.497
38.744,34.98,33.138000000000005,34.056,34.08,32.493
38.679,34.955,33.167,34.161,34.111,32.493
38.614000000000004,34.933,33.208,34.275999999999996,34.152,32.496
38.548,34.915,33.264,34.400999999999996,34.201,32.501999999999995
38.481,34.900999999999996,33.336,34.535,34.262,32.510999999999996
38.412,34.891999999999996,33.424,34.675,34.333,32.523
38.341,34.888000000000005,33.53,34.82,34.416,32.537
38.269,34.889,33.653,34.968,34.51,32.556
38.195,34.895,33.792,35.119,34.616,32.578
38.118,34.904,33.946999999999996,35.268,34.729,32.602
38.039,34.917,34.116,35.415,34.846,32.626999999999995
37.955999999999996,34.931,34.296,35.556999999999995,34.967,32.652
37.871,34.946999999999996,34.484,35.694,35.09,32.676
37.783,34.965,34.679,35.823,35.215,32.696999999999996
37.693000000000005,34.985,34.876999999999995,35.943000000000005,35.342,32.716
37.601,35.008,35.076,36.052,35.471,32.731
37.51,35.032,35.273,36.148,35.602,32.745
37.418,35.058,35.467,36.229,35.735,32.758
37.328,35.084,35.653,36.292,35.868,32.771
37.239000000000004,35.11,35.832,36.335,35.998000000000005,32.784
37.152,35.133,36.0,36.358000000000004,36.126,32.799
37.07,35.154,36.157,36.364000000000004,36.248000000000005,32.816
36.991,35.171,36.303000000000004,36.357,36.363,32.835
36.918,35.183,36.436,36.341,36.47,32.859
36.85,35.191,36.556999999999995,36.318000000000005,36.568000000000005,32.889
36.789,35.195,36.664,36.294000000000004,36.656,32.925
36.734,35.195,36.757,36.269,36.734,32.969
36.686,35.19,36.839,36.247,36.798,33.021
36.643,35.181,36.908,36.229,36.851,33.082
36.606,35.167,36.967,36.214,36.891,33.153
36.574,35.148,37.016999999999996,36.202,36.919000000000004,33.236
36.549,35.125,37.059,36.194,36.936,33.33
36.529,35.099000000000004,37.094,36.187,36.943000000000005,33.438
36.515,35.071,37.121,36.181,36.94,33.558
36.505,35.041,37.141999999999996,36.176,36.927,33.692
36.499,35.009,37.155,36.17,36.906,33.838
36.495,34.974000000000004,37.16,36.162,36.876999999999995,33.995
36.494,34.938,37.158,36.15,36.843,34.161
36.493,34.9,37.148,36.135999999999996,36.804,34.335
36.493,34.86,37.13,36.117,36.764,34.515
36.494,34.819,37.105,36.096,36.723,34.7
36.494,34.778,37.073,36.071999999999996,36.681999999999995,34.888000000000005
36.494,34.736,37.034,36.045,36.641,35.075
36.492,34.694,36.991,36.016,36.601,35.26
36.489000000000004,34.653,36.944,35.984,36.563,35.441
36.482,34.611,36.896,35.95,36.525,35.615
36.473,34.57,36.847,35.914,36.488,35.781
36.459,34.529,36.798,35.876999999999995,36.453,35.939
36.442,34.488,36.751999999999995,35.836999999999996,36.419000000000004,36.088
36.42,34.446,36.707,35.796,36.385,36.225
36.393,34.403,36.665,35.753,36.351,36.348
36.361999999999995,34.359,36.626999999999995,35.709,36.317,36.457
36.326,34.315,36.593,35.664,36.282,36.549
36.286,34.27,36.565,35.62,36.245,36.624
36.241,34.226,36.54,35.576,36.207,36.681999999999995
36.191,34.181,36.519,35.532,36.168,36.725
36.139,34.138000000000005,36.5,35.49,36.126999999999995,36.753
36.083,34.096,36.481,35.449,36.086,36.766999999999996
36.024,34.056999999999995,36.46,35.41,36.043,36.769
35.963,34.02,36.437,35.372,35.999,36.758
35.899,33.986,36.41,35.336999999999996,35.953,36.736999999999995
35.834,33.955999999999996,36.376999999999995,35.305,35.905,36.705999999999996
35.766,33.928000000000004,36.339,35.275999999999996,35.856,36.668
35.699,33.903,36.295,35.251999999999995,35.808,36.625
35.632,33.878,36.247,35.233000000000004,35.762,36.578
35.566,33.854,36.193000000000005,35.219,35.717,36.529
35.501999999999995,33.830999999999996,36.137,35.211,35.675,36.479
35.437,33.806999999999995,36.079,35.208,35.635999999999996,36.427
35.372,33.783,36.021,35.209,35.599000000000004,36.376
35.306,33.757,35.963,35.213,35.566,36.325
35.238,33.731,35.908,35.219,35.536,36.275999999999996
35.167,33.704,35.857,35.226,35.51,36.23
35.095,33.675,35.811,35.235,35.486999999999995,36.186
35.021,33.645,35.769,35.245,35.468,36.146
34.946,33.616,35.734,35.255,35.452,36.11
34.87,33.586999999999996,35.704,35.265,35.438,36.078
34.792,33.56,35.681999999999995,35.275999999999996,35.427,36.048
34.715,33.535,35.667,35.285,35.417,36.021
34.638000000000005,33.513000000000005,35.66,35.294000000000004,35.409,35.996
34.561,33.493,35.659,35.301,35.404,35.972
34.486999999999995,33.475,35.663000000000004,35.306999999999995,35.402,35.946999999999996
34.415,33.459,35.672,35.31,35.403,35.922
34.346,33.445,35.684,35.313,35.408,35.894
34.281,33.431999999999995,35.7,35.314,35.414,35.861999999999995
34.219,33.421,35.717,35.315,35.422,35.825
34.16,33.412,35.735,35.315,35.431,35.785
34.105,33.406,35.755,35.315,35.44,35.74
34.054,33.402,35.775999999999996,35.313,35.45,35.693000000000005
34.006,33.399,35.799,35.31,35.46,35.643
33.961,33.398,35.823,35.305,35.471,35.592
33.92,33.397,35.846,35.296,35.482,35.541
33.881,33.396,35.867,35.284,35.492,35.489000000000004
33.844,33.393,35.885999999999996,35.268,35.501999999999995,35.439
33.809,33.389,35.900999999999996,35.248000000000005,35.51,35.391
33.774,33.382,35.912,35.227,35.516,35.346
33.739000000000004,33.373000000000005,35.92,35.203,35.521,35.305
33.705,33.361999999999995,35.923,35.177,35.522,35.269
33.671,33.347,35.924,35.150999999999996,35.521,35.238
33.638000000000005,33.329,35.921,35.124,35.516999999999996,35.211999999999996
33.607,33.308,35.915,35.097,35.51,35.191
33.578,33.283,35.907,35.069,35.5,35.173
33.551,33.256,35.896,35.041,35.489000000000004,35.158
33.528,33.229,35.881,35.014,35.476,35.146
33.506,33.203,35.861,34.99,35.46,35.137
33.486999999999995,33.181,35.836999999999996,34.968,35.444,35.13
33.469,33.164,35.809,34.949,35.427,35.126
33.452,33.150999999999996,35.777,34.931999999999995,35.41,35.125
33.433,33.143,35.744,34.916,35.391,35.125
33.414,33.139,35.709,34.9,35.37,35.128
33.395,33.137,35.673,34.883,35.346,35.132
33.376999999999995,33.137,35.635999999999996,34.864000000000004,35.318000000000005,35.138000000000005
33.359,33.137,35.598,34.844,35.287,35.146
33.343,33.138000000000005,35.56,34.821,35.254,35.156
33.327,33.137,35.522,34.794000000000004,35.219,35.167
33.311,33.135,35.484,34.764,35.183,35.178000000000004
33.296,33.13,35.446999999999996,34.732,35.145,35.188
33.281,33.121,35.411,34.696,35.105,35.196
33.266999999999996,33.108000000000004,35.375,34.659,35.063,35.203
33.254,33.09,35.34,34.621,35.019,35.208
33.241,33.068000000000005,35.305,34.583,34.973,35.213
33.229,33.042,35.27,34.546,34.927,35.216
33.217,33.013000000000005,35.235,34.51,34.882,35.219
33.205,32.982,35.2,34.477,34.838,35.221
33.195,32.948,35.165,34.446,34.795,35.222
33.184,32.911,35.129,34.417,34.754,35.222
33.175,32.873000000000005,35.093,34.389,34.714,35.22
33.165,32.834,35.056,34.363,34.674,35.216
33.154,32.795,35.02,34.336999999999996,34.635999999999996,35.211999999999996
33.143,32.757,34.984,34.312,34.6,35.207
33.132,32.721,34.949,34.287,34.568000000000005,35.2
33.118,32.688,34.913000000000004,34.263000000000005,34.54,35.192
33.103,32.658,34.879,34.241,34.515,35.181
33.086999999999996,32.631,34.845,34.219,34.492,35.168
33.069,32.606,34.813,34.199,34.472,35.154
33.05,32.584,34.782,34.18,34.453,35.138000000000005
33.029,32.563,34.75,34.163000000000004,34.435,35.12
33.008,32.545,34.718,34.146,34.418,35.099000000000004
32.985,32.53,34.685,34.131,34.402,35.071999999999996
32.961,32.519,34.652,34.116,34.387,35.039
32.937,32.512,34.619,34.103,34.372,34.998000000000005
32.912,32.513000000000005,34.588,34.09,34.356,34.951
32.885999999999996,32.522,34.559,34.078,34.34,34.898
32.859,32.542,34.531,34.068000000000005,34.324,34.841
32.832,32.574,34.505,34.059,34.308,34.783
32.803000000000004,32.618,34.479,34.05,34.292,34.724000000000004
32.774,32.676,34.454,34.04,34.275999999999996,34.666
32.744,32.75,34.429,34.03,34.260999999999996,34.61
32.713,32.841,34.404,34.018,34.247,34.554
32.681,32.95,34.378,34.005,34.234,34.501
32.647,33.078,34.353,33.992,34.224000000000004,34.45
32.611999999999995,33.226,34.328,33.977,34.217,34.403
32.575,33.391,34.304,33.961,34.213,34.361
32.537,33.573,34.28,33.945,34.211999999999996,34.324
32.498000000000005,33.766999999999996,34.257,33.928000000000004,34.211999999999996,34.291
32.458,33.973,34.233000000000004,33.911,34.214,34.263000000000005
32.417,34.185,34.209,33.893,34.217,34.238
32.376,34.402,34.186,33.875,34.22,34.216
32.334,34.621,34.165,33.857,34.222,34.196999999999996
32.292,34.838,34.145,33.84,34.222,34.18
32.249,35.053000000000004,34.126999999999995,33.825,34.221,34.166
32.205999999999996,35.262,34.109,33.813,34.218,34.154
32.163000000000004,35.461999999999996,34.094,33.804,34.213,34.141999999999996
32.121,35.649,34.08,33.796,34.205999999999996,34.132
32.08,35.82,34.069,33.79,34.196,34.123000000000005
32.041,35.975,34.06,33.785,34.185,34.113
32.005,36.111999999999995,34.053000000000004,33.78,34.173,34.103
31.971999999999998,36.234,34.047,33.773,34.16,34.091
31.944000000000003,36.341,34.041,33.765,34.146,34.078
31.921999999999997,36.438,34.033,33.754,34.132,34.063
31.906999999999996,36.525999999999996,34.024,33.74,34.118,34.047
31.901999999999997,36.604,34.014,33.723,34.104,34.028
31.909000000000002,36.672,34.001999999999995,33.702,34.09,34.009
31.930999999999997,36.727,33.99,33.678000000000004,34.076,33.988
31.97,36.769,33.977,33.652,34.063,33.966
32.03,36.798,33.963,33.625,34.051,33.943000000000005
32.111999999999995,36.814,33.95,33.597,34.04,33.918
32.22,36.815,33.938,33.569,34.029,33.893
32.355,36.804,33.927,33.543,34.019,33.866
32.52,36.78,33.916,33.52,34.01,33.836999999999996
32.716,36.744,33.905,33.5,34.001,33.806999999999995
32.942,36.698,33.893,33.485,33.993,33.775
33.198,36.644,33.881,33.473,33.984,33.743
33.482,36.582,33.867,33.466,33.976,33.711999999999996
33.791,36.514,33.853,33.463,33.965,33.683
34.121,36.443000000000005,33.836999999999996,33.463,33.953,33.657
34.467,36.369,33.821,33.467,33.939,33.632
34.824,36.295,33.804,33.474000000000004,33.925,33.608000000000004
35.186,36.221,33.786,33.485,33.913000000000004,33.584
35.546,36.15,33.768,33.499,33.903,33.56
35.899,36.08,33.748000000000005,33.518,33.897,33.537
36.238,36.014,33.728,33.542,33.891999999999996,33.514
36.56,35.951,33.707,33.571,33.887,33.493
36.86,35.891,33.685,33.605,33.88,33.472
37.135999999999996,35.832,33.663000000000004,33.647,33.873000000000005,33.454
37.385999999999996,35.775999999999996,33.64,33.695,33.863,33.436
37.609,35.722,33.616,33.751999999999995,33.854,33.42
37.804,35.669000000000004,33.593,33.817,33.844,33.405
37.972,35.617,33.569,33.891999999999996,33.835,33.391
38.111999999999995,35.567,33.546,33.978,33.825,33.379
38.226,35.518,33.522,34.076,33.814,33.368
38.315,35.471,33.498000000000005,34.183,33.801,33.358000000000004
38.38,35.426,33.473,34.298,33.786,33.349000000000004
38.423,35.384,33.449,34.42,33.768,33.341
38.446,35.344,33.426,34.544000000000004,33.749,33.336
38.452,35.305,33.405,34.669000000000004,33.729,33.332
38.441,35.269,33.385999999999996,34.793,33.709,33.33
38.417,35.232,33.368,34.914,33.689,33.329
38.381,35.196999999999996,33.351,35.029,33.671,33.328
38.335,35.161,33.335,35.138000000000005,33.655,33.328
38.281,35.125,33.321,35.239000000000004,33.641999999999996,33.329
38.219,35.088,33.31,35.333,33.633,33.329
38.15,35.052,33.304,35.42,33.629,33.329
38.077,35.016999999999996,33.306,35.499,33.632,33.328
38.0,34.982,33.319,35.569,33.641999999999996,33.327
37.921,34.95,33.344,35.63,33.66,33.325
37.839,34.919000000000004,33.382,35.681,33.688,33.321
37.756,34.891,33.435,35.721,33.726,33.316
37.672,34.866,33.501999999999995,35.751999999999995,33.775999999999996,33.309
37.586,34.846,33.584,35.774,33.836,33.299
37.5,34.832,33.681,35.789,33.907,33.286
37.413000000000004,34.826,33.792,35.797,33.99,33.269
37.325,34.826,33.917,35.798,34.085,33.248000000000005
37.236999999999995,34.832,34.056999999999995,35.793,34.19,33.225
37.15,34.841,34.208,35.78,34.305,33.201
37.063,34.852,34.371,35.762,34.428000000000004,33.177
36.977,34.865,34.544000000000004,35.739000000000004,34.558,33.153
36.893,34.879,34.727,35.711999999999996,34.693000000000005,33.129
36.811,34.894,34.916,35.681,34.833,33.106
36.729,34.911,35.111,35.646,34.975,33.082
36.647,34.928000000000004,35.31,35.61,35.118,33.058
36.566,34.946,35.510999999999996,35.571,35.26,33.035
36.483000000000004,34.965,35.711,35.531,35.402,33.014
36.399,34.984,35.907,35.49,35.541,32.995
36.314,35.001999999999995,36.097,35.448,35.676,32.979
36.226,35.019,36.279,35.408,35.806999999999995,32.967
36.137,35.035,36.451,35.368,35.933,32.959
36.047,35.05,36.613,35.330999999999996,36.052,32.955999999999996
35.958,35.063,36.760999999999996,35.294000000000004,36.165,32.961
35.869,35.074,36.896,35.259,36.269,32.975
35.784,35.082,37.015,35.223,36.365,32.999
35.702,35.086999999999996,37.119,35.187,36.451,33.034
35.626,35.089,37.207,35.149,36.524,33.080999999999996
35.556,35.088,37.28,35.107,36.586,33.141999999999996
35.494,35.084,37.336,35.062,36.635,33.217
35.441,35.076,37.379,35.014,36.673,33.305
35.397,35.065,37.408,34.964,36.701,33.407
35.361,35.051,37.425,34.914,36.722,33.522
35.334,35.033,37.433,34.864000000000004,36.734,33.649
35.314,35.012,37.431999999999995,34.816,36.739000000000004,33.787
35.3,34.986,37.423,34.77,36.736,33.935
35.292,34.957,37.41,34.726,36.725,34.091
35.289,34.924,37.391999999999996,34.687,36.708,34.253
35.293,34.888000000000005,37.372,34.652,36.686,34.418
35.301,34.848,37.349000000000004,34.621,36.66,34.585
35.314,34.805,37.326,34.596,36.63,34.751
35.329,34.759,37.303000000000004,34.575,36.597,34.915
35.347,34.709,37.279,34.558,36.563,35.076
35.366,34.658,37.255,34.546,36.525999999999996,35.23
35.385,34.605,37.232,34.536,36.488,35.374
35.404,34.551,37.209,34.53,36.449,35.507
35.421,34.497,37.187,34.525,36.41,35.625
35.436,34.444,37.165,34.521,36.37,35.728
35.449,34.391999999999996,37.141999999999996,34.519,36.328,35.817
35.459,34.343,37.118,34.518,36.284,35.891999999999996
35.468,34.296,37.091,34.519,36.24,35.952
35.474000000000004,34.251999999999995,37.061,34.524,36.194,35.998000000000005
35.479,34.211,37.029,34.533,36.148,36.032
35.481,34.173,36.995,34.544000000000004,36.103,36.055
35.48,34.139,36.959,34.556999999999995,36.058,36.068000000000005
35.476,34.107,36.921,34.571999999999996,36.015,36.071999999999996
35.468,34.076,36.882,34.589,35.973,36.07
35.458,34.048,36.842,34.606,35.931999999999995,36.061
35.445,34.02,36.801,34.625,35.891,36.046
35.429,33.995,36.76,34.644,35.844,36.027
35.411,33.971,36.719,34.664,35.791,36.003
35.391,33.946999999999996,36.679,34.684,35.732,35.977
35.368,33.921,36.64,34.703,35.671,35.949
35.342,33.893,36.602,34.722,35.609,35.92
35.312,33.861,36.564,34.739000000000004,35.55,35.89
35.281,33.828,36.525999999999996,34.753,35.496,35.861
35.247,33.793,36.488,34.764,35.45,35.833
35.21,33.758,36.45,34.77,35.413000000000004,35.805
35.171,33.723,36.412,34.772,35.384,35.777
35.128,33.691,36.373000000000005,34.771,35.364000000000004,35.748000000000005
35.082,33.66,36.335,34.768,35.354,35.719
35.031,33.631,36.296,34.764,35.353,35.689
34.975,33.604,36.256,34.759,35.361,35.659
34.913000000000004,33.58,36.215,34.753,35.376,35.63
34.847,33.558,36.176,34.746,35.397,35.601
34.777,33.539,36.14,34.739000000000004,35.421,35.574
34.705,33.522,36.107,34.732,35.446999999999996,35.548
34.633,33.506,36.08,34.724000000000004,35.473,35.522
34.56,33.49,36.058,34.716,35.499,35.496
34.49,33.474000000000004,36.04,34.707,35.525,35.47
34.422,33.458,36.027,34.696,35.551,35.442
34.357,33.443000000000005,36.016999999999996,34.684,35.577,35.414
34.297,33.428000000000004,36.012,34.669000000000004,35.603,35.383
34.242,33.414,36.010999999999996,34.650999999999996,35.626999999999995,35.35
34.193000000000005,33.400999999999996,36.014,34.629,35.65,35.314
34.148,33.389,36.022,34.603,35.671,35.275
34.107,33.376999999999995,36.033,34.573,35.689,35.232
34.066,33.366,36.048,34.54,35.707,35.188
34.025999999999996,33.355,36.063,34.505,35.725,35.141
33.984,33.346,36.08,34.469,35.741,35.094
33.941,33.336999999999996,36.096,34.434,35.757,35.047
33.896,33.33,36.111999999999995,34.4,35.773,35.0
33.848,33.323,36.126999999999995,34.367,35.787,34.953
33.798,33.318000000000005,36.14,34.336999999999996,35.801,34.906
33.745,33.313,36.149,34.308,35.813,34.861999999999995
33.69,33.308,36.155,34.282,35.824,34.821
33.634,33.304,36.157,34.257,35.833,34.783
33.578,33.3,36.155,34.235,35.839,34.751999999999995
33.522,33.295,36.149,34.217,35.843,34.727
33.467,33.289,36.138000000000005,34.201,35.844,34.709
33.415,33.282,36.124,34.188,35.843,34.698
33.366,33.273,36.107,34.177,35.838,34.694
33.321999999999996,33.264,36.086999999999996,34.167,35.830999999999996,34.696999999999996
33.282,33.254,36.065,34.156,35.821,34.708
33.247,33.244,36.039,34.143,35.808,34.724000000000004
33.217,33.235,36.012,34.128,35.79,34.746
33.191,33.225,35.982,34.109,35.769,34.771
33.169000000000004,33.213,35.951,34.086,35.744,34.799
33.150999999999996,33.199,35.92,34.059,35.715,34.826
33.135,33.183,35.888000000000005,34.028,35.683,34.851
33.121,33.166,35.855,33.996,35.647,34.872
33.107,33.149,35.821,33.965,35.611,34.889
33.095,33.132,35.787,33.937,35.575,34.902
33.083,33.116,35.751999999999995,33.913000000000004,35.539,34.911
33.071,33.1,35.716,33.891999999999996,35.504,34.916
33.06,33.084,35.679,33.874,35.47,34.92
33.048,33.068000000000005,35.641999999999996,33.86,35.436,34.923
33.036,33.052,35.605,33.851,35.400999999999996,34.928000000000004
33.024,33.035,35.566,33.847,35.367,34.934
33.010999999999996,33.016,35.527,33.846,35.335,34.943000000000005
32.998000000000005,32.996,35.486,33.847,35.305,34.954
32.986,32.973,35.444,33.849000000000004,35.279,34.967
32.974000000000004,32.949,35.402,33.85,35.256,34.98
32.961999999999996,32.921,35.358000000000004,33.849000000000004,35.236,34.991
32.951,32.889,35.314,33.845,35.219,35.0
32.94,32.855,35.269,33.839,35.204,35.004
32.929,32.819,35.224000000000004,33.830999999999996,35.19,35.001999999999995
32.918,32.781,35.178000000000004,33.821999999999996,35.178000000000004,34.995
32.908,32.743,35.132,33.812,35.166,34.983000000000004
32.897,32.705999999999996,35.086,33.803000000000004,35.154,34.967
32.885999999999996,32.672,35.04,33.793,35.141999999999996,34.946999999999996
32.875,32.646,34.995,33.784,35.128,34.924
32.864000000000004,32.631,34.952,33.775999999999996,35.111999999999995,34.899
32.851,32.63,34.91,33.769,35.093,34.871
32.839,32.641,34.872,33.763000000000005,35.071999999999996,34.842
32.826,32.662,34.835,33.757,35.047,34.811
32.814,32.692,34.801,33.751999999999995,35.021,34.78
32.802,32.73,34.77,33.748000000000005,34.995,34.747
32.79,32.774,34.741,33.745,34.968,34.714
32.779,32.825,34.714,33.744,34.941,34.68
32.769,32.883,34.69,33.743,34.914,34.644
32.76,32.949,34.669000000000004,33.744,34.887,34.607
32.75,33.021,34.649,33.744,34.861999999999995,34.569
32.741,33.102,34.63,33.743,34.836999999999996,34.53
32.73,33.192,34.611,33.742,34.814,34.491
32.717,33.291,34.592,33.739000000000004,34.793,34.452
32.702,33.400999999999996,34.571999999999996,33.735,34.774,34.414
32.685,33.521,34.551,33.73,34.757,34.376
32.664,33.654,34.53,33.723,34.741,34.34
32.64,33.799,34.507,33.715,34.726,34.304
32.613,33.957,34.484,33.705,34.713,34.269
32.585,34.126999999999995,34.46,33.693000000000005,34.702,34.234
32.556,34.306,34.435,33.68,34.694,34.201
32.527,34.493,34.409,33.665,34.687,34.17
32.499,34.684,34.383,33.650999999999996,34.68,34.141
32.473,34.878,34.357,33.635999999999996,34.671,34.113
32.448,35.071,34.330999999999996,33.622,34.66,34.086999999999996
32.424,35.260999999999996,34.305,33.61,34.646,34.063
32.402,35.446999999999996,34.279,33.6,34.629,34.039
32.381,35.625,34.253,33.591,34.608000000000004,34.016
32.361999999999995,35.793,34.228,33.584,34.585,33.995
32.343,35.949,34.203,33.579,34.559,33.975
32.324,36.089,34.179,33.576,34.533,33.957
32.305,36.214,34.157,33.574,34.505,33.939
32.283,36.321999999999996,34.137,33.574,34.477,33.92
32.26,36.415,34.119,33.578,34.449,33.9
32.235,36.492,34.103,33.586999999999996,34.421,33.878
32.207,36.554,34.088,33.602,34.394,33.853
32.176,36.602,34.074,33.624,34.369,33.826
32.141,36.637,34.061,33.655,34.347,33.797
32.105,36.659,34.048,33.696,34.329,33.766
32.066,36.669000000000004,34.036,33.748000000000005,34.315,33.733000000000004
32.027,36.669000000000004,34.024,33.811,34.304,33.698
31.987,36.661,34.012,33.885999999999996,34.296,33.663000000000004
31.948,36.644,34.001,33.972,34.29,33.626999999999995
31.909000000000002,36.622,33.989000000000004,34.069,34.287,33.591
31.872,36.593,33.976,34.177,34.284,33.556
31.836,36.56,33.961999999999996,34.295,34.283,33.523
31.804000000000002,36.521,33.946999999999996,34.422,34.283,33.491
31.776,36.479,33.931,34.556,34.285,33.461
31.750999999999998,36.431999999999995,33.915,34.696,34.288000000000004,33.433
31.732,36.384,33.899,34.841,34.291,33.406
31.717,36.333,33.882,34.986999999999995,34.295,33.38
31.708000000000002,36.282,33.865,35.132,34.298,33.356
31.705,36.231,33.848,35.274,34.301,33.335
31.711,36.179,33.83,35.411,34.303000000000004,33.316
31.726,36.128,33.813,35.542,34.303000000000004,33.301
31.753,36.078,33.796,35.666,34.301,33.289
31.793000000000003,36.028,33.78,35.781,34.296,33.279
31.851,35.98,33.763000000000005,35.885999999999996,34.286,33.272
31.93,35.933,33.746,35.98,34.272,33.268
32.031,35.887,33.729,36.063,34.255,33.266
32.157,35.842,33.711999999999996,36.135999999999996,34.233000000000004,33.266
32.31,35.797,33.695,36.196,34.208,33.268
32.49,35.753,33.677,36.246,34.181,33.272
32.696999999999996,35.708,33.66,36.286,34.150999999999996,33.275999999999996
32.928000000000004,35.663000000000004,33.641999999999996,36.317,34.119,33.281
33.184,35.617,33.624,36.34,34.085,33.285
33.461999999999996,35.571,33.605,36.356,34.049,33.288000000000004
33.760999999999996,35.525,33.586999999999996,36.365,34.010999999999996,33.29
34.077,35.48,33.567,36.367,33.973,33.291
34.405,35.435,33.546,36.363,33.937,33.29
34.74,35.391999999999996,33.524,36.354,33.903,33.288000000000004
35.077,35.35,33.501,36.34,33.873000000000005,33.285
35.409,35.308,33.478,36.321999999999996,33.849000000000004,33.279
35.733000000000004,35.268,33.455,36.301,33.830999999999996,33.273
36.042,35.229,33.433,36.278,33.819,33.265
36.334,35.194,33.41,36.251999999999995,33.813,33.256
36.604,35.162,33.387,36.225,33.815,33.247
36.851,35.135999999999996,33.364000000000004,36.196999999999996,33.825,33.236999999999995
37.071,35.114000000000004,33.34,36.169000000000004,33.844,33.225
37.265,35.099000000000004,33.316,36.14,33.876,33.211
37.431999999999995,35.089,33.293,36.111999999999995,33.921,33.194
37.571999999999996,35.084,33.272,36.085,33.978,33.174
37.687,35.085,33.253,36.058,34.049,33.150999999999996
37.777,35.088,33.236999999999995,36.031,34.131,33.124
37.846,35.096,33.223,36.004,34.225,33.096
37.895,35.106,33.213,35.977,34.33,33.065
37.925,35.119,33.208,35.949,34.443000000000005,33.035
37.938,35.134,33.208,35.921,34.564,33.003
37.935,35.152,33.215,35.894,34.692,32.972
37.916,35.171,33.231,35.867,34.826,32.941
37.884,35.192,33.256,35.84,34.963,32.91
37.84,35.214,33.291,35.815,35.101,32.88
37.785,35.236,33.34,35.79,35.239000000000004,32.851
37.721,35.256,33.402,35.766999999999996,35.376,32.824
37.649,35.275999999999996,33.48,35.744,35.509,32.8
37.57,35.295,33.575,35.722,35.638000000000005,32.777
37.488,35.312,33.687,35.698,35.760999999999996,32.756
37.403,35.328,33.815,35.674,35.875,32.735
37.317,35.342,33.96,35.65,35.981,32.717
37.23,35.353,34.121,35.626,36.076,32.699
37.146,35.361,34.296,35.602,36.16,32.685
37.064,35.366,34.483000000000004,35.578,36.234,32.675
36.986,35.367,34.681999999999995,35.556999999999995,36.297,32.668
36.91,35.365,34.889,35.537,36.351,32.666
36.835,35.361,35.103,35.519,36.397,32.669000000000004
36.760999999999996,35.353,35.321,35.504,36.436,32.676
36.687,35.343,35.542,35.491,36.468,32.689
36.613,35.33,35.76,35.481,36.495,32.707
36.538000000000004,35.312,35.973,35.473,36.516,32.733000000000004
36.461,35.291,36.179,35.468,36.532,32.766
36.382,35.266999999999996,36.375,35.466,36.544000000000004,32.809
36.301,35.241,36.56,35.467,36.552,32.861
36.217,35.213,36.733000000000004,35.47,36.556,32.924
36.132,35.186,36.891,35.475,36.556999999999995,32.998000000000005
36.046,35.158,37.035,35.481,36.553000000000004,33.085
35.959,35.129,37.165,35.488,36.546,33.181999999999995
35.873000000000005,35.1,37.28,35.496,36.535,33.292
35.786,35.071,37.38,35.504,36.52,33.413000000000004
35.702,35.041,37.465,35.512,36.501999999999995,33.546
35.619,35.010999999999996,37.536,35.522,36.48,33.689
35.538000000000004,34.98,37.594,35.533,36.455,33.84
35.461,34.948,37.637,35.545,36.426,33.997
35.387,34.915,37.668,35.558,36.391999999999996,34.157
35.319,34.88,37.687,35.571999999999996,36.353,34.32
35.256,34.842,37.696,35.585,36.306,34.484
35.198,34.803000000000004,37.696,35.597,36.253,34.647
35.144,34.760999999999996,37.689,35.607,36.193000000000005,34.806999999999995
35.095,34.718,37.675,35.614000000000004,36.128,34.963
35.051,34.674,37.657,35.619,36.058,35.111999999999995
35.012,34.629,37.635,35.622,35.984,35.254
34.977,34.585,37.61,35.623000000000005,35.906,35.387
34.946,34.543,37.580999999999996,35.621,35.824,35.510999999999996
34.92,34.503,37.549,35.618,35.736999999999995,35.625
34.899,34.465,37.516,35.613,35.648,35.731
34.882,34.427,37.482,35.606,35.556,35.826
34.871,34.389,37.446,35.598,35.463,35.91
34.866,34.351,37.409,35.588,35.369,35.983000000000004
34.865,34.312,37.37,35.578,35.275,36.043
34.869,34.274,37.332,35.565,35.181999999999995,36.09
34.876999999999995,34.236999999999995,37.296,35.55,35.09,36.123000000000005
34.888000000000005,34.202,37.260999999999996,35.532,35.0,36.144
34.900999999999996,34.168,37.228,35.510999999999996,34.914,36.150999999999996
34.916,34.137,37.196,35.486999999999995,34.832,36.145
34.931999999999995,34.107,37.166,35.46,34.757,36.126999999999995
34.948,34.079,37.137,35.43,34.69,36.098
34.963,34.053000000000004,37.109,35.397,34.631,36.058
34.978,34.028,37.082,35.361999999999995,34.582,36.01
34.991,34.006,37.055,35.327,34.541,35.955999999999996
35.003,33.988,37.029,35.291,34.509,35.897
35.014,33.973,37.001999999999995,35.256,34.485,35.836999999999996
35.023,33.959,36.976,35.223,34.469,35.778
35.031,33.946999999999996,36.949,35.193000000000005,34.461,35.721
35.036,33.935,36.921,35.166,34.461,35.666
35.04,33.921,36.891999999999996,35.14,34.471,35.615
35.042,33.905,36.861,35.114000000000004,34.491,35.568000000000005
35.04,33.888000000000005,36.827,35.088,34.518,35.525
35.033,33.869,36.791,35.061,34.553000000000004,35.488
35.022,33.849000000000004,36.751999999999995,35.032,34.594,35.455
35.005,33.829,36.711,35.003,34.64,35.426
34.983000000000004,33.808,36.667,34.971,34.689,35.399
34.955,33.788000000000004,36.623000000000005,34.938,34.742,35.374
34.923,33.768,36.578,34.903,34.795,35.349000000000004
34.885999999999996,33.747,36.533,34.867,34.847,35.323
34.846,33.727,36.489000000000004,34.83,34.897,35.296
34.803000000000004,33.709,36.446999999999996,34.794000000000004,34.945,35.266999999999996
34.758,33.694,36.406,34.758,34.989000000000004,35.236999999999995
34.714,33.68,36.367,34.722,35.029,35.204
34.67,33.668,36.330999999999996,34.687,35.065,35.169000000000004
34.625,33.658,36.299,34.650999999999996,35.099000000000004,35.131
34.58,33.648,36.271,34.614000000000004,35.13,35.09
34.534,33.639,36.247,34.577,35.159,35.045
34.486,33.631,36.229,34.542,35.186,34.998000000000005
34.435,33.624,36.217,34.509,35.211,34.948
34.382,33.62,36.21,34.478,35.235,34.897
34.326,33.618,36.209,34.451,35.255,34.846
34.268,33.62,36.211,34.426,35.271,34.795
34.207,33.624,36.216,34.405,35.283,34.745
34.143,33.628,36.224000000000004,34.388000000000005,35.291,34.698
34.079,33.632,36.233000000000004,34.375,35.294000000000004,34.654
34.014,33.634,36.241,34.365,35.292,34.617
33.95,33.632,36.25,34.357,35.284,34.586999999999996
33.887,33.626999999999995,36.258,34.35,35.271,34.567
33.827,33.617,36.265,34.343,35.253,34.563
33.77,33.604,36.271,34.335,35.229,34.573
33.717,33.589,36.275999999999996,34.326,35.202,34.595
33.667,33.571999999999996,36.281,34.315,35.173,34.626
33.62,33.552,36.284,34.303000000000004,35.143,34.661
33.576,33.529,36.285,34.291,35.113,34.699
33.534,33.505,36.283,34.279,35.083,34.736
33.494,33.48,36.279,34.266999999999996,35.052,34.771
33.454,33.455,36.272,34.254,35.02,34.801
33.416,33.429,36.262,34.241,34.984,34.825
33.379,33.405,36.249,34.226,34.946,34.843
33.342,33.381,36.234,34.21,34.907,34.856
33.306,33.357,36.217,34.193000000000005,34.867,34.861999999999995
33.272,33.334,36.198,34.177,34.828,34.865
33.239000000000004,33.311,36.177,34.161,34.789,34.863
33.208,33.289,36.153,34.147,34.751,34.859
33.179,33.266999999999996,36.126,34.135999999999996,34.714,34.853
33.150999999999996,33.247,36.096,34.126999999999995,34.677,34.845
33.126,33.227,36.064,34.12,34.641,34.836999999999996
33.101,33.209,36.03,34.113,34.609,34.828
33.079,33.191,35.992,34.108000000000004,34.580999999999996,34.82
33.056999999999995,33.174,35.952,34.102,34.556999999999995,34.812
33.037,33.155,35.91,34.095,34.537,34.804
33.019,33.135,35.866,34.089,34.52,34.796
33.001999999999995,33.114000000000004,35.821,34.080999999999996,34.505,34.788000000000004
32.986999999999995,33.091,35.775999999999996,34.073,34.492,34.779
32.972,33.066,35.73,34.063,34.48,34.769
32.958,33.042,35.684,34.052,34.468,34.756
32.945,33.018,35.638000000000005,34.041,34.457,34.741
32.931999999999995,32.996,35.592,34.029,34.446,34.725
32.919000000000004,32.977,35.545,34.018,34.433,34.708
32.904,32.961999999999996,35.5,34.006,34.419000000000004,34.692
32.888000000000005,32.951,35.454,33.995,34.404,34.677
32.87,32.944,35.409,33.984,34.388000000000005,34.661
32.851,32.944,35.365,33.974000000000004,34.372,34.643
32.832,32.95,35.321,33.965,34.356,34.625
32.814,32.966,35.277,33.955,34.341,34.605
32.797,32.994,35.234,33.943000000000005,34.327,34.585
32.784,33.036,35.192,33.929,34.315,34.564
32.774,33.093,35.152,33.912,34.304,34.543
32.769,33.167,35.113,33.891999999999996,34.294000000000004,34.522
32.766,33.256,35.075,33.869,34.285,34.501999999999995
32.766,33.361999999999995,35.038000000000004,33.843,34.278,34.482
32.766,33.484,35.001999999999995,33.816,34.271,34.463
32.765,33.621,34.967,33.789,34.265,34.445
32.764,33.772,34.934,33.762,34.259,34.429
32.760999999999996,33.936,34.900999999999996,33.736,34.253,34.413000000000004
32.757,34.111999999999995,34.87,33.711,34.246,34.397
32.751999999999995,34.297,34.84,33.689,34.236999999999995,34.379
32.745,34.49,34.81,33.672,34.225,34.36
32.735,34.688,34.781,33.659,34.211,34.339
32.724000000000004,34.889,34.751999999999995,33.653,34.194,34.317
32.71,35.089,34.723,33.655,34.174,34.292
32.695,35.284,34.694,33.664,34.152,34.266
32.678000000000004,35.474000000000004,34.664,33.683,34.128,34.238
32.661,35.654,34.634,33.709,34.103,34.209
32.643,35.824,34.603,33.744,34.078,34.179
32.626,35.981,34.571,33.786,34.052,34.148
32.611,36.123000000000005,34.538000000000004,33.836999999999996,34.028,34.115
32.596,36.249,34.505,33.897,34.004,34.080999999999996
32.584,36.359,34.47,33.964,33.981,34.047
32.571,36.453,34.435,34.04,33.96,34.012
32.559,36.53,34.400999999999996,34.125,33.941,33.978
32.547,36.592,34.367,34.218,33.923,33.946
32.533,36.639,34.336,34.321,33.907,33.914
32.516999999999996,36.672,34.308,34.431999999999995,33.891999999999996,33.884
32.498000000000005,36.692,34.282,34.552,33.878,33.853
32.477,36.7,34.259,34.68,33.864000000000004,33.821
32.454,36.696,34.238,34.816,33.851,33.79
32.428000000000004,36.684,34.22,34.958,33.839,33.76
32.4,36.663000000000004,34.203,35.105,33.826,33.733000000000004
32.37,36.635999999999996,34.187,35.257,33.814,33.709
32.34,36.604,34.172,35.41,33.802,33.689
32.309,36.567,34.156,35.562,33.789,33.671
32.278,36.525,34.141,35.711999999999996,33.775,33.655
32.246,36.479,34.124,35.858000000000004,33.759,33.641999999999996
32.214,36.429,34.105,35.996,33.743,33.63
32.183,36.376999999999995,34.086,36.125,33.725,33.62
32.150999999999996,36.324,34.066,36.245,33.707,33.611
32.12,36.27,34.047,36.354,33.688,33.603
32.09,36.216,34.029,36.452,33.67,33.595
32.061,36.164,34.012,36.539,33.652,33.586999999999996
32.034,36.113,33.997,36.614000000000004,33.633,33.578
32.008,36.064,33.982,36.679,33.611999999999995,33.568000000000005
31.983,36.016,33.968,36.734,33.589,33.556
31.956999999999997,35.97,33.952,36.779,33.565,33.543
31.932,35.925,33.933,36.815,33.542,33.528
31.905,35.88,33.913000000000004,36.841,33.518,33.510999999999996
31.878,35.836,33.89,36.859,33.495,33.493
31.85,35.793,33.866,36.869,33.471,33.476
31.820999999999998,35.75,33.841,36.872,33.444,33.46
31.793000000000003,35.708,33.816,36.868,33.415,33.446
31.766,35.664,33.792,36.857,33.384,33.434
31.741,35.619,33.768,36.84,33.353,33.423
31.72,35.571999999999996,33.746,36.817,33.324,33.415
31.705,35.523,33.727,36.789,33.301,33.408
31.698,35.472,33.711,36.757,33.284,33.403
31.701,35.42,33.696,36.721,33.275,33.399
31.717,35.368,33.683,36.683,33.274,33.394
31.748,35.318000000000005,33.669000000000004,36.645,33.283,33.388000000000005
31.796,35.269,33.655,36.608000000000004,33.301,33.382
31.863000000000003,35.221,33.64,36.573,33.330999999999996,33.375
31.953000000000003,35.176,33.626,36.541,33.373000000000005,33.37
32.065,35.133,33.611999999999995,36.510999999999996,33.427,33.366
32.202,35.093,33.599000000000004,36.484,33.494,33.364000000000004
32.364000000000004,35.056,33.585,36.459,33.573,33.361999999999995
32.551,35.023,33.571,36.436,33.663000000000004,33.36
32.763000000000005,34.994,33.555,36.414,33.765,33.357
32.999,34.97,33.537,36.391999999999996,33.876999999999995,33.353
33.255,34.951,33.516999999999996,36.37,33.999,33.348
33.528,34.937,33.495,36.346,34.131,33.344
33.816,34.928000000000004,33.472,36.321,34.271,33.34
34.114000000000004,34.924,33.446999999999996,36.295,34.418,33.336
34.417,34.924,33.421,36.266999999999996,34.57,33.330999999999996
34.72,34.929,33.395,36.236999999999995,34.726,33.323
35.02,34.938,33.367,36.207,34.883,33.312
35.312,34.951,33.34,36.176,35.041,33.298
35.593,34.968,33.312,36.145,35.196999999999996,33.28
35.857,34.989000000000004,33.283,36.115,35.349000000000004,33.26
36.104,35.012,33.254,36.086999999999996,35.496,33.236999999999995
36.33,35.037,33.226,36.061,35.635999999999996,33.211
36.536,35.063,33.198,36.038000000000004,35.766999999999996,33.184
36.719,35.088,33.173,36.016,35.887,33.155
36.88,35.111999999999995,33.149,35.997,35.995,33.126
37.018,35.135,33.128,35.979,36.091,33.096
37.133,35.157,33.109,35.963,36.174,33.068000000000005
37.226,35.178000000000004,33.093,35.948,36.243,33.042
37.299,35.198,33.08,35.934,36.299,33.018
37.352,35.215,33.071,35.922,36.342,32.998000000000005
37.387,35.23,33.069,35.912,36.372,32.979
37.406,35.242,33.075,35.903,36.391999999999996,32.964
37.41,35.25,33.092,35.897,36.400999999999996,32.95
37.402,35.255,33.119,35.891999999999996,36.4,32.939
37.384,35.256,33.157,35.888000000000005,36.39,32.93
37.358000000000004,35.251999999999995,33.207,35.885999999999996,36.373000000000005,32.925
37.323,35.244,33.27,35.885,36.349000000000004,32.924
37.282,35.232,33.347,35.885,36.321999999999996,32.928000000000004
37.236,35.215,33.438,35.888000000000005,36.291,32.936
37.184,35.194,33.543,35.891999999999996,36.257,32.95
37.129,35.17,33.664,35.899,36.219,32.968
37.07,35.141999999999996,33.8,35.907,36.177,32.992
37.008,35.111,33.95,35.917,36.13,33.023
36.944,35.077,34.115,35.926,36.08,33.064
36.88,35.042,34.293,35.935,36.028,33.114000000000004
36.814,35.005,34.483000000000004,35.942,35.973,33.176
36.749,34.966,34.683,35.948,35.915,33.249
36.683,34.928000000000004,34.89,35.953,35.855,33.332
36.619,34.889,35.102,35.955999999999996,35.792,33.427
36.555,34.851,35.316,35.959,35.724000000000004,33.531
36.492,34.814,35.53,35.96,35.652,33.645
36.43,34.778,35.74,35.961,35.578,33.766999999999996
36.368,34.744,35.946,35.96,35.504,33.895
36.306999999999995,34.711999999999996,36.146,35.958,35.431,34.029
36.246,34.681,36.336999999999996,35.955,35.361,34.166
36.185,34.65,36.518,35.951,35.294000000000004,34.305
36.125,34.618,36.688,35.946,35.231,34.445
36.065,34.586,36.844,35.938,35.171,34.585
36.004,34.552,36.986999999999995,35.929,35.116,34.724000000000004
35.942,34.518,37.115,35.917,35.064,34.86
35.879,34.484,37.229,35.903,35.016999999999996,34.992
35.815,34.451,37.326,35.884,34.972,35.119
35.75,34.418,37.408,35.86,34.931,35.241
35.684,34.385,37.474000000000004,35.830999999999996,34.891999999999996,35.355
35.617,34.352,37.525,35.796,34.855,35.461
35.55,34.317,37.561,35.756,34.82,35.56
35.483000000000004,34.28,37.583,35.713,34.786,35.65
35.417,34.242,37.592,35.667,34.754,35.733000000000004
35.353,34.204,37.591,35.621,34.723,35.806999999999995
35.293,34.165,37.580999999999996,35.575,34.694,35.873000000000005
35.236,34.129,37.563,35.531,34.666,35.93
35.184,34.094,37.538000000000004,35.488,34.641,35.977
35.138000000000005,34.063,37.508,35.446999999999996,34.619,36.015
35.097,34.033,37.475,35.409,34.601,36.043
35.064,34.007,37.438,35.374,34.588,36.061
35.036,33.982,37.4,35.341,34.58,36.071
35.016,33.959,37.361,35.309,34.579,36.073
35.001,33.938,37.321999999999996,35.28,34.583,36.068000000000005
34.994,33.918,37.283,35.253,34.593,36.055
34.992,33.899,37.245,35.229,34.607,36.037
34.997,33.883,37.209,35.207,34.625,36.013000000000005
35.008,33.869,37.174,35.187,34.647,35.983000000000004
35.025,33.855,37.141,35.168,34.67,35.949
35.047,33.843,37.11,35.15,34.693000000000005,35.911
35.074,33.830999999999996,37.080999999999996,35.132,34.716,35.87
35.104,33.818000000000005,37.053000000000004,35.114000000000004,34.738,35.828
35.137,33.805,37.025,35.095,34.760999999999996,35.785
35.171,33.791,36.997,35.075,34.785,35.739000000000004
35.205,33.775999999999996,36.968,35.053000000000004,34.808,35.692
35.238,33.760999999999996,36.937,35.03,34.830999999999996,35.644
35.269,33.746,36.905,35.007,34.852,35.596
35.297,33.729,36.871,34.983000000000004,34.872,35.549
35.321,33.711,36.836,34.959,34.891,35.503
35.342,33.692,36.799,34.934,34.91,35.459
35.361,33.673,36.762,34.908,34.928000000000004,35.416
35.376999999999995,33.655,36.724000000000004,34.881,34.946,35.373000000000005
35.39,33.637,36.684,34.854,34.964,35.330999999999996
35.400999999999996,33.621,36.644,34.826,34.979,35.289
35.408,33.607,36.602,34.798,34.992,35.248000000000005
35.411,33.595,36.56,34.768,35.0,35.205999999999996
35.408,33.585,36.516999999999996,34.736999999999995,35.004,35.165
35.398,33.577,36.476,34.705,35.003,35.124
35.381,33.571999999999996,36.434,34.672,34.997,35.082
35.359,33.569,36.393,34.639,34.986999999999995,35.038000000000004
35.332,33.568000000000005,36.353,34.607,34.973,34.993
35.301,33.569,36.313,34.577,34.954,34.945
35.268,33.571999999999996,36.273,34.55,34.931,34.896
35.233000000000004,33.576,36.233000000000004,34.527,34.905,34.845
35.196999999999996,33.580999999999996,36.194,34.507,34.876999999999995,34.794000000000004
35.16,33.584,36.156,34.491,34.849000000000004,34.742
35.122,33.586,36.118,34.48,34.821999999999996,34.691
35.083,33.586,36.082,34.472,34.795,34.643
35.044000000000004,33.585,36.047,34.467,34.769,34.597
35.005,33.580999999999996,36.015,34.464,34.744,34.556999999999995
34.965,33.576,35.986,34.463,34.718,34.524
34.927,33.571,35.961,34.461999999999996,34.691,34.5
34.89,33.566,35.941,34.459,34.664,34.485
34.855,33.56,35.927,34.455999999999996,34.635999999999996,34.479
34.821999999999996,33.553000000000004,35.918,34.449,34.61,34.482
34.791,33.544000000000004,35.914,34.44,34.585,34.494
34.759,33.533,35.915,34.429,34.56,34.512
34.727,33.518,35.92,34.414,34.536,34.537
34.694,33.5,35.929,34.399,34.512,34.567
34.661,33.48,35.941,34.382,34.486999999999995,34.6
34.628,33.459,35.957,34.366,34.461,34.635999999999996
34.594,33.437,35.975,34.35,34.431,34.672
34.559,33.415,35.993,34.334,34.4,34.709
34.522,33.391999999999996,36.01,34.319,34.367,34.745
34.483000000000004,33.37,36.025,34.302,34.333,34.782
34.442,33.349000000000004,36.036,34.284,34.298,34.816
34.4,33.327,36.043,34.265,34.262,34.848
34.359,33.306999999999995,36.046,34.244,34.224000000000004,34.878
34.321,33.29,36.044000000000004,34.223,34.184,34.904
34.284,33.275,36.037,34.2,34.144,34.926
34.249,33.260999999999996,36.025,34.178000000000004,34.105,34.942
34.216,33.247,36.009,34.156,34.068000000000005,34.952
34.183,33.231,35.989000000000004,34.135,34.033,34.955
34.15,33.215,35.966,34.114000000000004,34.001,34.953
34.118,33.196,35.94,34.094,33.973,34.946
34.084,33.176,35.912,34.073,33.946999999999996,34.935
34.051,33.155,35.882,34.053000000000004,33.925,34.92
34.018,33.132,35.852,34.032,33.906,34.903
33.986999999999995,33.108000000000004,35.821,34.01,33.891999999999996,34.883
33.958,33.084,35.788000000000004,33.986999999999995,33.882,34.861999999999995
33.931,33.06,35.753,33.965,33.875,34.84
33.908,33.037,35.718,33.944,33.871,34.818000000000005
33.889,33.016999999999996,35.681999999999995,33.923,33.868,34.798
33.874,33.001,35.646,33.903,33.864000000000004,34.78
33.864000000000004,32.99,35.611,33.885,33.86,34.765
33.858000000000004,32.985,35.576,33.869,33.854,34.753
33.857,32.989000000000004,35.541,33.854,33.845,34.744
33.859,33.001999999999995,35.504,33.842,33.833,34.736
33.864000000000004,33.025999999999996,35.465,33.830999999999996,33.82,34.73
33.87,33.062,35.424,33.824,33.805,34.724000000000004
33.876999999999995,33.11,35.383,33.82,33.787,34.718
33.885,33.171,35.34,33.821,33.768,34.711
33.891999999999996,33.245,35.298,33.828,33.747,34.703
33.899,33.333,35.255,33.841,33.726,34.691
33.905,33.435,35.213,33.86,33.705,34.677
33.91,33.553000000000004,35.172,33.887,33.686,34.66
33.914,33.686,35.133,33.922,33.67,34.639
33.919000000000004,33.834,35.096,33.967,33.657,34.616
33.924,33.995,35.06,34.022,33.647,34.591
33.93,34.165,35.024,34.088,33.638000000000005,34.564
33.936,34.342,34.988,34.166,33.626999999999995,34.536
33.942,34.523,34.952,34.255,33.608000000000004,34.507
33.949,34.705999999999996,34.915,34.354,33.577,34.476
33.955,34.888000000000005,34.876999999999995,34.463,33.535,34.443000000000005
33.959,35.07,34.838,34.580999999999996,33.486,34.407
33.961999999999996,35.249,34.798,34.707,33.436,34.369
33.961999999999996,35.423,34.758,34.838,33.387,34.33
33.96,35.589,34.717,34.976,33.344,34.29
33.955,35.746,34.677,35.118,33.309,34.249
33.948,35.891,34.637,35.263000000000005,33.284,34.207
33.939,36.023,34.598,35.409,33.269,34.165
33.927,36.14,34.558,35.555,33.264,34.123000000000005
33.913000000000004,36.243,34.519,35.698,33.27,34.083
33.896,36.330999999999996,34.48,35.836,33.284,34.045
33.878,36.406,34.442,35.967,33.305,34.012
33.859,36.467,34.408,36.088,33.330999999999996,33.985
33.838,36.515,34.375,36.2,33.361,33.963
33.817,36.551,34.346,36.3,33.391,33.946
33.795,36.575,34.319,36.389,33.42,33.934
33.773,36.588,34.294000000000004,36.466,33.446999999999996,33.925
33.751,36.59,34.27,36.531,33.472,33.919000000000004
33.729,36.582,34.249,36.586,33.493,33.916
33.708,36.565,34.23,36.63,33.510999999999996,33.914
33.686,36.54,34.211,36.664,33.525999999999996,33.912
33.664,36.508,34.193000000000005,36.689,33.537,33.91
33.643,36.47,34.176,36.705,33.545,33.906
33.622,36.427,34.158,36.714,33.551,33.9
33.602,36.379,34.139,36.718,33.555,33.891999999999996
33.580999999999996,36.327,34.118,36.715,33.559,33.88
33.562,36.272,34.096,36.708,33.564,33.867
33.542,36.214,34.073,36.696999999999996,33.57,33.852
33.523,36.155,34.049,36.681,33.58,33.836
33.503,36.097,34.023,36.66,33.593,33.82
33.482,36.041,33.996,36.634,33.611999999999995,33.804
33.461,35.986,33.97,36.604,33.638000000000005,33.787
33.438,35.934,33.944,36.571,33.672,33.769
33.414,35.883,33.919000000000004,36.535,33.715,33.75
33.389,35.832,33.895,36.499,33.77,33.73
33.361999999999995,35.782,33.874,36.461999999999996,33.838,33.709
33.334,35.731,33.854,36.427,33.918,33.687
33.306,35.68,33.836,36.39,34.01,33.666
33.275999999999996,35.629,33.819,36.352,34.111999999999995,33.644
33.246,35.579,33.803000000000004,36.311,34.223,33.622
33.216,35.528,33.789,36.266999999999996,34.342,33.602
33.186,35.478,33.775,36.223,34.469,33.582
33.157,35.43,33.762,36.178000000000004,34.601,33.564
33.126999999999995,35.382,33.75,36.134,34.739000000000004,33.55
33.098,35.336,33.742,36.091,34.88,33.539
33.068000000000005,35.291,33.736,36.048,35.024,33.532
33.037,35.247,33.733000000000004,36.005,35.166,33.528
33.004,35.204,33.731,35.963,35.306,33.525999999999996
32.97,35.163000000000004,33.73,35.921,35.442,33.527
32.935,35.123000000000005,33.729,35.88,35.571999999999996,33.529
32.898,35.084,33.726,35.84,35.694,33.533
32.859,35.047,33.721,35.803000000000004,35.806999999999995,33.537
32.819,35.010999999999996,33.714,35.768,35.911,33.541
32.778,34.978,33.705,35.736,36.005,33.545
32.736,34.948,33.693000000000005,35.708,36.086999999999996,33.548
32.694,34.921,33.677,35.681999999999995,36.159,33.552
32.654,34.897,33.658,35.659,36.219,33.555
32.616,34.878,33.637,35.638000000000005,36.27,33.558
32.580999999999996,34.861999999999995,33.611999999999995,35.619,36.313,33.561
32.551,34.851,33.586,35.603,36.349000000000004,33.565
32.527,34.845,33.558,35.589,36.378,33.569
32.512,34.843,33.529,35.577,36.4,33.571999999999996
32.507,34.846,33.5,35.568000000000005,36.416,33.576
32.515,34.854,33.47,35.563,36.424,33.578
32.538000000000004,34.867,33.44,35.561,36.427,33.579
32.578,34.883,33.41,35.562,36.422,33.577
32.638000000000005,34.900999999999996,33.38,35.565,36.412,33.574
32.719,34.92,33.35,35.57,36.397,33.568000000000005
32.823,34.94,33.321,35.576,36.378,33.563
32.951,34.961,33.292,35.585,36.355,33.556
33.104,34.983000000000004,33.264,35.595,36.329,33.549
33.281,35.006,33.236999999999995,35.608000000000004,36.301,33.541
33.481,35.031,33.211,35.622,36.271,33.531
33.701,35.056999999999995,33.188,35.637,36.239000000000004,33.521
33.941,35.084,33.166,35.653,36.205,33.512
34.195,35.11,33.146,35.669000000000004,36.171,33.506
34.461999999999996,35.134,33.128,35.685,36.135,33.503
34.736999999999995,35.154,33.111999999999995,35.7,36.098,33.506
35.016,35.169000000000004,33.098,35.715,36.061,33.514
35.296,35.181,33.084,35.73,36.023,33.528
35.571999999999996,35.189,33.07,35.746,35.985,33.55
35.841,35.194,33.055,35.762,35.946,33.58
36.1,35.195,33.039,35.777,35.908,33.618
36.347,35.193000000000005,33.024,35.791,35.87,33.665
36.578,35.187,33.010999999999996,35.803000000000004,35.832,33.72
36.791,35.178000000000004,33.001999999999995,35.81,35.794000000000004,33.782
36.985,35.164,33.0,35.813,35.755,33.845
37.157,35.148,33.003,35.811,35.714,33.909
37.308,35.128,33.014,35.804,35.671,33.975
37.437,35.106,33.033,35.793,35.624,34.046
37.544000000000004,35.080999999999996,33.063,35.779,35.575,34.124
37.631,35.054,33.104,35.760999999999996,35.524,34.213
37.699,35.025999999999996,33.16,35.742,35.474000000000004,34.314
37.749,34.996,33.23,35.721,35.423,34.427
37.783,34.964,33.317,35.701,35.374,34.552
37.801,34.931,33.421,35.681,35.327,34.688
37.805,34.896,33.542,35.663000000000004,35.281,34.830999999999996
37.795,34.861999999999995,33.683,35.645,35.238,34.98
37.773,34.828,33.842,35.628,35.199,35.132
37.74,34.794000000000004,34.018,35.609,35.163000000000004,35.283
37.696999999999996,34.762,34.21,35.59,35.133,35.433
37.646,34.73,34.413000000000004,35.568000000000005,35.108000000000004,35.578
37.586999999999996,34.698,34.625,35.542,35.088,35.715
37.523,34.666,34.843,35.513000000000005,35.074,35.839
37.453,34.634,35.063,35.48,35.064,35.95
37.379,34.602,35.283,35.444,35.06,36.046
37.302,34.57,35.499,35.406,35.06,36.126
37.222,34.536,35.71,35.366,35.066,36.192
37.141,34.501999999999995,35.914,35.325,35.077,36.244
37.059,34.468,36.108000000000004,35.284,35.093,36.282
36.979,34.431999999999995,36.291,35.244,35.113,36.309
36.9,34.395,36.461999999999996,35.205999999999996,35.135999999999996,36.325
36.823,34.357,36.619,35.169000000000004,35.16,36.333
36.748000000000005,34.319,36.762,35.134,35.184,36.332
36.676,34.282,36.891999999999996,35.1,35.208,36.326
36.606,34.246,37.007,35.068000000000005,35.234,36.315
36.54,34.213,37.109,35.037,35.26,36.3
36.477,34.183,37.196,35.008,35.287,36.282
36.419000000000004,34.155,37.266999999999996,34.981,35.316,36.260999999999996
36.365,34.126999999999995,37.324,34.957,35.346,36.236
36.316,34.1,37.365,34.934,35.376999999999995,36.208
36.269,34.071999999999996,37.391,34.913000000000004,35.409,36.176
36.222,34.044000000000004,37.404,34.891999999999996,35.442,36.141
36.174,34.018,37.404,34.871,35.474000000000004,36.103
36.123000000000005,33.992,37.394,34.849000000000004,35.505,36.061
36.067,33.97,37.373000000000005,34.825,35.535,36.016999999999996
36.007,33.949,37.344,34.8,35.562,35.968
35.941,33.931,37.309,34.773,35.586999999999996,35.914
35.87,33.915,37.269,34.744,35.608000000000004,35.856
35.794000000000004,33.899,37.227,34.715,35.625,35.794000000000004
35.717,33.885,37.183,34.685,35.638000000000005,35.73
35.638000000000005,33.871,37.139,34.654,35.647,35.665
35.56,33.859,37.095,34.623000000000005,35.650999999999996,35.6
35.484,33.848,37.053000000000004,34.593,35.650999999999996,35.535
35.413000000000004,33.839,37.013000000000005,34.563,35.647,35.473
35.347,33.830999999999996,36.975,34.536,35.638000000000005,35.412
35.289,33.823,36.937,34.51,35.623000000000005,35.355
35.238,33.815,36.900999999999996,34.486,35.602,35.3
35.195,33.805,36.866,34.465,35.578,35.249
35.161,33.795,36.832,34.446,35.55,35.201
35.134,33.785,36.798,34.429,35.52,35.156
35.115,33.775999999999996,36.766,34.413000000000004,35.488,35.115
35.103,33.766999999999996,36.733000000000004,34.398,35.455,35.077
35.096,33.758,36.7,34.384,35.42,35.043
35.093,33.749,36.666,34.37,35.384,35.012
35.096,33.739000000000004,36.632,34.358000000000004,35.347,34.984
35.102,33.727,36.596,34.347,35.306999999999995,34.957
35.111999999999995,33.713,36.556999999999995,34.338,35.266999999999996,34.931
35.126,33.699,36.516,34.332,35.225,34.907
35.144,33.684,36.471,34.327,35.184,34.884
35.166,33.67,36.423,34.323,35.143,34.863
35.192,33.658,36.371,34.319,35.103,34.843
35.219,33.646,36.317,34.315,35.063,34.827
35.247,33.637,36.26,34.309,35.022,34.815
35.274,33.63,36.202,34.301,34.98,34.809
35.3,33.625,36.145,34.291,34.937,34.809
35.321999999999996,33.621,36.088,34.28,34.895,34.815
35.341,33.619,36.034,34.266999999999996,34.855,34.826
35.355,33.618,35.982,34.253,34.817,34.842
35.364000000000004,33.617,35.933,34.239000000000004,34.782,34.861999999999995
35.368,33.619,35.887,34.226,34.749,34.884
35.367,33.622,35.844,34.213,34.718,34.909
35.361,33.626999999999995,35.803000000000004,34.2,34.687,34.938
35.352,33.631,35.766999999999996,34.189,34.656,34.969
35.341,33.635,35.735,34.179,34.625,35.004
35.327,33.635999999999996,35.707,34.171,34.595,35.042
35.311,33.634,35.681999999999995,34.164,34.564,35.084
35.293,33.629,35.661,34.158,34.535,35.13
35.273,33.619,35.643,34.152,34.506,35.178000000000004
35.248000000000005,33.606,35.628,34.148,34.477,35.228
35.221,33.59,35.618,34.143,34.449,35.278
35.189,33.57,35.611999999999995,34.137,34.423,35.329
35.155,33.547,35.61,34.13,34.399,35.376999999999995
35.117,33.521,35.613,34.121,34.378,35.424
35.076,33.493,35.62,34.111,34.36,35.467
35.033,33.463,35.63,34.098,34.345,35.506
34.988,33.431999999999995,35.641999999999996,34.083,34.333,35.539
34.941,33.402,35.657,34.066,34.324,35.567
34.891999999999996,33.373000000000005,35.673,34.047,34.316,35.588
34.842,33.345,35.69,34.025,34.31,35.604
34.791,33.319,35.707,34.0,34.305,35.614000000000004
34.739000000000004,33.295,35.725,33.973,34.299,35.617
34.686,33.273,35.742,33.945,34.294000000000004,35.613
34.631,33.253,35.759,33.916,34.287,35.603
34.575,33.235,35.773,33.89,34.28,35.588
34.518,33.218,35.784,33.866,34.27,35.569
34.461,33.202,35.793,33.846,34.258,35.549
34.404,33.185,35.798,33.830999999999996,34.245,35.528
34.347,33.169000000000004,35.799,33.821,34.23,35.507
34.289,33.154,35.797,33.813,34.214,35.484
34.232,33.14,35.79,33.808,34.196999999999996,35.46
34.174,33.129,35.78,33.805,34.179,35.436
34.117,33.121,35.765,33.804,34.16,35.411
34.059,33.118,35.747,33.806,34.139,35.385
34.001999999999995,33.119,35.726,33.811,34.118,35.358000000000004
33.945,33.128,35.703,33.821,34.096,35.330999999999996
33.889,33.145,35.679,33.836,34.074,35.304
33.836,33.172,35.653,33.859,34.053000000000004,35.277
33.785,33.21,35.624,33.889,34.033,35.25
33.736,33.260999999999996,35.593,33.93,34.014,35.221
33.692,33.327,35.558,33.983000000000004,33.997,35.191
33.65,33.407,35.518,34.047,33.982,35.159
33.611999999999995,33.501999999999995,35.474000000000004,34.125,33.968,35.125
33.578,33.614000000000004,35.426,34.216,33.955,35.09
33.549,33.74,35.375,34.32,33.945,35.054
33.525,33.881,35.323,34.437,33.936,35.016999999999996
33.503,34.036,35.271,34.567,33.929,34.981
33.483000000000004,34.202,35.22,34.707,33.926,34.945
33.463,34.376999999999995,35.17,34.856,33.927,34.91
33.442,34.559,35.123000000000005,35.010999999999996,33.931999999999995,34.876999999999995
33.419000000000004,34.745,35.079,35.169000000000004,33.941,34.848
33.395,34.931,35.039,35.328,33.957,34.821
33.371,35.115,35.001999999999995,35.486,33.982,34.796
33.346,35.293,34.967,35.641,34.014,34.773
33.32,35.463,34.935,35.79,34.055,34.75
33.294000000000004,35.623000000000005,34.903,35.931999999999995,34.105,34.727
33.266999999999996,35.771,34.87,36.065,34.164,34.704
33.24,35.905,34.836999999999996,36.188,34.231,34.681
33.214,36.025,34.802,36.299,34.306,34.659
33.189,36.131,34.766999999999996,36.399,34.389,34.639
33.166,36.222,34.73,36.488,34.479,34.619
33.145,36.299,34.693000000000005,36.565,34.577,34.601
33.126,36.363,34.654,36.63,34.684,34.583
33.107,36.413000000000004,34.613,36.686,34.799,34.567
33.09,36.451,34.571,36.731,34.924,34.553000000000004
33.073,36.476,34.527,36.766,35.056999999999995,34.54
33.055,36.49,34.484,36.793,35.196,34.528
33.038000000000004,36.493,34.441,36.812,35.34,34.518
33.021,36.486999999999995,34.402,36.821999999999996,35.486999999999995,34.509
33.005,36.476,34.365,36.824,35.635,34.5
32.992,36.46,34.332,36.817,35.784,34.492
32.979,36.44,34.304,36.804,35.93,34.484
32.968,36.416,34.279,36.783,36.074,34.476
32.957,36.387,34.258,36.757,36.214,34.469
32.945,36.353,34.241,36.727,36.349000000000004,34.463
32.934,36.315,34.226,36.694,36.478,34.457
32.924,36.272,34.214,36.659,36.6,34.45
32.915,36.227,34.204,36.623000000000005,36.715,34.441
32.909,36.18,34.194,36.586999999999996,36.821,34.429
32.905,36.133,34.185,36.552,36.919000000000004,34.415
32.904,36.085,34.175,36.518,37.007,34.397
32.904,36.038000000000004,34.164,36.482,37.086,34.376999999999995
32.904,35.99,34.153,36.445,37.156,34.354
32.904,35.942,34.14,36.407,37.217,34.33
32.903,35.891999999999996,34.126,36.368,37.268,34.305
32.900999999999996,35.841,34.109,36.328,37.312,34.277
32.896,35.788000000000004,34.09,36.288000000000004,37.346,34.248000000000005
32.887,35.734,34.07,36.247,37.372,34.218
32.875,35.678000000000004,34.048,36.204,37.39,34.188
32.861,35.621,34.024,36.161,37.400999999999996,34.16
32.843,35.561,34.0,36.117,37.403,34.135
32.825,35.499,33.977,36.074,37.398,34.114000000000004
32.806999999999995,35.436,33.953,36.03,37.387,34.098
32.79,35.371,33.93,35.986999999999995,37.37,34.086
32.773,35.306999999999995,33.908,35.944,37.348,34.079
32.757,35.244,33.888000000000005,35.903,37.321,34.075
32.741,35.184,33.869,35.863,37.289,34.074
32.725,35.126999999999995,33.853,35.825,37.254,34.075
32.708,35.074,33.838,35.789,37.215,34.077
32.689,35.025999999999996,33.825,35.757,37.172,34.08
32.668,34.982,33.814,35.729,37.125,34.083
32.643,34.943000000000005,33.803000000000004,35.705,37.074,34.085
32.615,34.908,33.793,35.685,37.022,34.088
32.586,34.879,33.782,35.669000000000004,36.97,34.091
32.556,34.855,33.77,35.656,36.92,34.096
32.525,34.836999999999996,33.758,35.647,36.872,34.104
32.494,34.824,33.745,35.64,36.825,34.115
32.465,34.815,33.732,35.634,36.78,34.132
32.436,34.81,33.72,35.631,36.734,34.156
32.408,34.806999999999995,33.707,35.629,36.686,34.187
32.381,34.806999999999995,33.694,35.63,36.635999999999996,34.227
32.356,34.809,33.681,35.634,36.583,34.275999999999996
32.330999999999996,34.813,33.668,35.641,36.528,34.336
32.306,34.821,33.654,35.650999999999996,36.471,34.408
32.28,34.833,33.641,35.664,36.412,34.493
32.254,34.849000000000004,33.629,35.678000000000004,36.349000000000004,34.591
32.227,34.871,33.617,35.693000000000005,36.284,34.701
32.198,34.896,33.605,35.708,36.217,34.821999999999996
32.167,34.925,33.592,35.723,36.152,34.953
32.133,34.955999999999996,33.578,35.736999999999995,36.09,35.093
32.097,34.988,33.563,35.749,36.031,35.24
32.061,35.022,33.548,35.760999999999996,35.979,35.394
32.025,35.056,33.531,35.772,35.931999999999995,35.554
31.991,35.09,33.515,35.781,35.893,35.72
31.958000000000002,35.125,33.498000000000005,35.79,35.861999999999995,35.89
31.928,35.159,33.481,35.798,35.84,36.063
31.901,35.191,33.463,35.806,35.826,36.235
31.875999999999998,35.223,33.444,35.814,35.82,36.405
31.855,35.251,33.424,35.82,35.821,36.571
31.840999999999998,35.277,33.404,35.826,35.828,36.731
31.831999999999997,35.3,33.384,35.830999999999996,35.839,36.882
31.831,35.32,33.361999999999995,35.836,35.853,37.022
31.837,35.336999999999996,33.34,35.839,35.871,37.149
31.85,35.348,33.317,35.839,35.89,37.260999999999996
31.874000000000002,35.356,33.292,35.836999999999996,35.911,37.357
31.909000000000002,35.358000000000004,33.266999999999996,35.83,35.933,37.436
31.956999999999997,35.356,33.241,35.821,35.955,37.499
32.021,35.35,33.215,35.81,35.977,37.548
32.102,35.341,33.191,35.797,35.998000000000005,37.582
32.203,35.329,33.17,35.782,36.018,37.603
32.326,35.313,33.153,35.765,36.034,37.614000000000004
32.471,35.296,33.143,35.746,36.048,37.615
32.639,35.277,33.14,35.725,36.06,37.609
32.83,35.256,33.147,35.702,36.07,37.598
33.042,35.231,33.165,35.677,36.077,37.584
33.272,35.201,33.195,35.649,36.083,37.568000000000005
33.516999999999996,35.166,33.239000000000004,35.618,36.086999999999996,37.55
33.775,35.126999999999995,33.299,35.585,36.09,37.53
34.042,35.086,33.374,35.55,36.09,37.505
34.314,35.043,33.465,35.514,36.088,37.469
34.586,34.998000000000005,33.571999999999996,35.476,36.084,37.419000000000004
34.854,34.954,33.696,35.438,36.078,37.355
35.116,34.909,33.836,35.4,36.071,37.28
35.368,34.864000000000004,33.99,35.361999999999995,36.064,37.198
35.606,34.82,34.158,35.324,36.056,37.111999999999995
35.828,34.777,34.339,35.285,36.048,37.025999999999996
36.033,34.734,34.53,35.246,36.039,36.942
36.219,34.694,34.73,35.207,36.029,36.861
36.387,34.655,34.936,35.167,36.016999999999996,36.786
36.535,34.617,35.144,35.128,36.001999999999995,36.717
36.664,34.58,35.352,35.089,35.986999999999995,36.654
36.774,34.545,35.558,35.05,35.97,36.596
36.866,34.510999999999996,35.759,35.012,35.951,36.543
36.939,34.48,35.951,34.975,35.931,36.492
36.995,34.451,36.133,34.94,35.908,36.444
37.034,34.424,36.302,34.907,35.882,36.397
37.059,34.400999999999996,36.455999999999996,34.876999999999995,35.852,36.351
37.069,34.381,36.593,34.85,35.82,36.305
37.068000000000005,34.364000000000004,36.714,34.826,35.786,36.26
37.055,34.349000000000004,36.819,34.804,35.751,36.216
37.032,34.336999999999996,36.908,34.784,35.717,36.172
37.0,34.326,36.983000000000004,34.765,35.684,36.128
36.96,34.315,37.044000000000004,34.746,35.652,36.085
36.913000000000004,34.305,37.093,34.725,35.621,36.042
36.86,34.294000000000004,37.13,34.703,35.589,36.001999999999995
36.801,34.283,37.155,34.679,35.558,35.965
36.739000000000004,34.272,37.17,34.654,35.525999999999996,35.933
36.674,34.259,37.177,34.626999999999995,35.495,35.906
36.607,34.245,37.176,34.6,35.465,35.883
36.539,34.23,37.17,34.571999999999996,35.435,35.865
36.47,34.213,37.158,34.546,35.405,35.851
36.403,34.195,37.14,34.52,35.376,35.841
36.336999999999996,34.177,37.118,34.496,35.348,35.834
36.273,34.159,37.091,34.474000000000004,35.319,35.830999999999996
36.211,34.141999999999996,37.061,34.454,35.291,35.830999999999996
36.15,34.126,37.028,34.437,35.263000000000005,35.834
36.091,34.111999999999995,36.991,34.421,35.234,35.841
36.032,34.1,36.952,34.407,35.204,35.849000000000004
35.973,34.089,36.911,34.395,35.174,35.86
35.914,34.08,36.867,34.385,35.144,35.873000000000005
35.854,34.073,36.821,34.375,35.115,35.887
35.794000000000004,34.067,36.773,34.367,35.088,35.904
35.733000000000004,34.063,36.724000000000004,34.359,35.062,35.924
35.672,34.06,36.674,34.351,35.04,35.946
35.611,34.06,36.623000000000005,34.342,35.021,35.97
35.549,34.06,36.57,34.332,35.005,35.997
35.486,34.063,36.516,34.321,34.991,36.025
35.42,34.065,36.46,34.311,34.978,36.054
35.352,34.068000000000005,36.403,34.301,34.967,36.083
35.281,34.071,36.345,34.291,34.955999999999996,36.113
35.21,34.071999999999996,36.288000000000004,34.282,34.945,36.144
35.137,34.074,36.233000000000004,34.273,34.936,36.174
35.065,34.075,36.18,34.264,34.927,36.202
34.993,34.077,36.129,34.256,34.921,36.228
34.924,34.08,36.082,34.248000000000005,34.916,36.25
34.86,34.082,36.035,34.241,34.912,36.266999999999996
34.803000000000004,34.084,35.99,34.236,34.909,36.28
34.753,34.084,35.946,34.231,34.906,36.289
34.714,34.083,35.903,34.228,34.904,36.294000000000004
34.683,34.08,35.86,34.226,34.902,36.295
34.662,34.076,35.82,34.224000000000004,34.9,36.292
34.650999999999996,34.069,35.781,34.222,34.9,36.285
34.649,34.06,35.743,34.218,34.900999999999996,36.275999999999996
34.658,34.049,35.708,34.213,34.902,36.263000000000005
34.676,34.034,35.674,34.205999999999996,34.904,36.248000000000005
34.702,34.016999999999996,35.641999999999996,34.196999999999996,34.906,36.231
34.734,33.997,35.613,34.186,34.908,36.211
34.771,33.975,35.585,34.175,34.909,36.19
34.812,33.95,35.559,34.162,34.908,36.167
34.854,33.924,35.536,34.148,34.905,36.141999999999996
34.895,33.898,35.516,34.133,34.9,36.115
34.935,33.872,35.499,34.118,34.893,36.085
34.973,33.847,35.485,34.102,34.884,36.052
35.008,33.824,35.475,34.086999999999996,34.873000000000005,36.016999999999996
35.04,33.804,35.469,34.071,34.861,35.98
35.068000000000005,33.787,35.468,34.056,34.847,35.942
35.092,33.772,35.472,34.042,34.832,35.902
35.113,33.76,35.482,34.028,34.818000000000005,35.86
35.132,33.751999999999995,35.496,34.015,34.803000000000004,35.815
35.149,33.748000000000005,35.513000000000005,34.001999999999995,34.79,35.769
35.164,33.748000000000005,35.532,33.991,34.778,35.722
35.176,33.753,35.552,33.98,34.768,35.675
35.186,33.763000000000005,35.571,33.969,34.759,35.626999999999995
35.193000000000005,33.778,35.591,33.96,34.753,35.580999999999996
35.195,33.799,35.61,33.953,34.751,35.534
35.194,33.827,35.626999999999995,33.946,34.755,35.486999999999995
35.187,33.864000000000004,35.644,33.941,34.765,35.44
35.175,33.911,35.658,33.938,34.783,35.393
35.158,33.97,35.67,33.935,34.809,35.345
35.135,34.04,35.679,33.933,34.843,35.298
35.107,34.124,35.685,33.933,34.887,35.25
35.075,34.221,35.688,33.936,34.941,35.201
35.038000000000004,34.330999999999996,35.687,33.942,35.005,35.150999999999996
34.999,34.454,35.684,33.954,35.08,35.1
34.958,34.588,35.677,33.974000000000004,35.167,35.049
34.916,34.733000000000004,35.667,34.001999999999995,35.266,34.999
34.872,34.885999999999996,35.654,34.039,35.376,34.949
34.829,35.047,35.639,34.086,35.497,34.900999999999996
34.785,35.211999999999996,35.621,34.143,35.629,34.856
34.741,35.379,35.602,34.211,35.769,34.814
34.698,35.545,35.582,34.288000000000004,35.918,34.774
34.655,35.708,35.559,34.376,36.074,34.736
34.611999999999995,35.865,35.535,34.474000000000004,36.236,34.7
34.569,36.014,35.508,34.584,36.4,34.665
34.525,36.154,35.478,34.703,36.567,34.63
34.481,36.285,35.444,34.832,36.732,34.597
34.435,36.405,35.407,34.969,36.895,34.566
34.389,36.514,35.367,35.115,37.053000000000004,34.536
34.343,36.611,35.324,35.266999999999996,37.205999999999996,34.507
34.295,36.694,35.279,35.423,37.353,34.479
34.247,36.763000000000005,35.233000000000004,35.582,37.494,34.452
34.199,36.818000000000005,35.185,35.74,37.628,34.427
34.150999999999996,36.86,35.135999999999996,35.895,37.754,34.405
34.103,36.889,35.086999999999996,36.043,37.871,34.385
34.055,36.906,35.039,36.185,37.98,34.368
34.008,36.911,34.991,36.317,38.079,34.355
33.961,36.906,34.945,36.44,38.169000000000004,34.344
33.913000000000004,36.891,34.9,36.553000000000004,38.25,34.335
33.866,36.867,34.858000000000004,36.656,38.321,34.327
33.821,36.835,34.817,36.748000000000005,38.381,34.321
33.777,36.795,34.778,36.83,38.431,34.316
33.735,36.749,34.739000000000004,36.902,38.47,34.312
33.695,36.701,34.7,36.964,38.498000000000005,34.306999999999995
33.659,36.65,34.662,37.016999999999996,38.514,34.302
33.625,36.6,34.625,37.061,38.518,34.296
33.595,36.551,34.589,37.096,38.513000000000005,34.287
33.569,36.503,34.555,37.124,38.498000000000005,34.275999999999996
33.548,36.455,34.522,37.143,38.475,34.262
33.529,36.408,34.491,37.154,38.445,34.245
33.515,36.361999999999995,34.461,37.158,38.407,34.227
33.503,36.316,34.431999999999995,37.153,38.361999999999995,34.207
33.494,36.271,34.404,37.141,38.311,34.185
33.486999999999995,36.227,34.376999999999995,37.123000000000005,38.254,34.162
33.481,36.184,34.35,37.098,38.192,34.135999999999996
33.474000000000004,36.143,34.323,37.067,38.126,34.108000000000004
33.466,36.103,34.296,37.031,38.056999999999995,34.078
33.458,36.063,34.269,36.99,37.986,34.048
33.448,36.022,34.242,36.946,37.913000000000004,34.021
33.438,35.982,34.215,36.9,37.839,33.997
33.427,35.942,34.189,36.852,37.765,33.977
33.415,35.900999999999996,34.165,36.805,37.692,33.96
33.403,35.86,34.144,36.758,37.622,33.948
33.391999999999996,35.817,34.124,36.714,37.556,33.939
33.382,35.773,34.105,36.671,37.492,33.935
33.375,35.728,34.086,36.631,37.43,33.937
33.369,35.681999999999995,34.068000000000005,36.593,37.37,33.946
33.367,35.635999999999996,34.05,36.556,37.311,33.963
33.368,35.591,34.031,36.52,37.251,33.989000000000004
33.371,35.548,34.012,36.485,37.192,34.025999999999996
33.376999999999995,35.507,33.993,36.449,37.131,34.074
33.384,35.469,33.973,36.414,37.07,34.137
33.39,35.436,33.953,36.379,37.009,34.214
33.394,35.406,33.933,36.344,36.945,34.306
33.397,35.381,33.915,36.309,36.88,34.415
33.397,35.36,33.898,36.274,36.813,34.538000000000004
33.396,35.345,33.882,36.238,36.745,34.677
33.393,35.335,33.867,36.199,36.676,34.829
33.389,35.33,33.853,36.158,36.607,34.993
