Trial 1:0back,Trial 2:2back,Trial 3:3back,Trial 4:2back,Trial 5:3back,Trial 6:0back
33.751,34.946999999999996,35.726,35.364000000000004,35.423,34.052
33.732,34.921,35.704,35.521,35.408,34.082
33.711,34.896,35.684,35.677,35.393,34.119
33.687,34.872,35.667,35.830999999999996,35.379,34.164
33.661,34.848,35.652,35.98,35.365,34.217
33.631,34.823,35.639,36.121,35.352,34.279
33.598,34.799,35.626,36.251999999999995,35.339,34.349000000000004
33.562,34.774,35.614000000000004,36.371,35.328,34.427
33.524,34.749,35.601,36.476,35.317,34.515
33.484,34.726,35.589,36.567,35.312,34.61
33.443000000000005,34.703,35.576,36.643,35.317,34.711
33.400999999999996,34.683,35.563,36.703,35.332,34.818000000000005
33.358000000000004,34.664,35.551,36.748000000000005,35.357,34.929
33.314,34.645,35.538000000000004,36.779,35.389,35.042
33.271,34.628,35.525,36.796,35.423,35.156
33.229,34.611,35.512,36.802,35.455,35.27
33.187,34.596,35.498000000000005,36.796,35.485,35.382
33.146,34.582,35.483000000000004,36.783,35.509,35.49
33.107,34.57,35.466,36.763000000000005,35.525999999999996,35.592
33.07,34.56,35.446999999999996,36.739000000000004,35.537,35.687
33.035,34.552,35.428000000000004,36.711999999999996,35.541,35.774
33.004,34.547,35.41,36.685,35.538000000000004,35.852
32.977,34.543,35.393,36.66,35.528,35.919000000000004
32.955,34.542,35.376999999999995,36.637,35.513000000000005,35.975
32.937,34.542,35.363,36.619,35.492,36.02
32.922,34.543,35.352,36.605,35.467,36.053000000000004
32.911,34.545,35.342,36.596,35.44,36.075
32.903,34.547,35.335,36.591,35.412,36.086
32.898,34.548,35.330999999999996,36.589,35.385,36.086999999999996
32.897,34.549,35.330999999999996,36.589,35.36,36.079
32.899,34.55,35.334,36.59,35.336999999999996,36.061
32.905,34.55,35.342,36.591,35.319,36.035
32.917,34.549,35.353,36.591,35.303000000000004,36.001
32.935,34.547,35.367,36.589,35.289,35.959
32.961,34.546,35.383,36.583,35.277,35.913000000000004
32.998000000000005,34.544000000000004,35.398,36.574,35.265,35.861999999999995
33.048,34.543,35.413000000000004,36.561,35.253,35.806999999999995
33.113,34.54,35.426,36.544000000000004,35.24,35.75
33.193000000000005,34.537,35.438,36.523,35.228,35.691
33.29,34.533,35.446999999999996,36.498000000000005,35.216,35.632
33.405,34.528,35.453,36.469,35.204,35.571999999999996
33.538000000000004,34.522,35.457,36.437,35.192,35.515
33.688,34.516,35.457,36.402,35.181999999999995,35.459
33.853,34.509,35.454,36.365,35.172,35.406
34.031,34.501,35.446,36.325,35.162,35.355
34.218,34.492,35.434,36.285,35.150999999999996,35.306999999999995
34.411,34.483000000000004,35.418,36.244,35.138000000000005,35.262
34.607,34.474000000000004,35.398,36.204,35.123000000000005,35.221
34.802,34.465,35.375,36.165,35.105,35.183
34.994,34.459,35.35,36.126999999999995,35.083,35.149
35.178000000000004,34.454,35.321999999999996,36.091,35.059,35.119
35.352,34.453,35.292,36.056,35.035,35.093
35.512,34.455999999999996,35.26,36.023,35.01,35.069
35.657,34.465,35.228,35.991,34.986999999999995,35.048
35.786,34.481,35.195,35.961,34.966,35.029
35.899,34.504,35.163000000000004,35.933,34.946999999999996,35.013000000000005
35.995,34.537,35.132,35.905,34.931999999999995,35.0
36.074,34.578,35.103,35.876999999999995,34.919000000000004,34.989000000000004
36.137,34.629,35.076,35.85,34.91,34.98
36.181999999999995,34.689,35.052,35.824,34.903,34.973
36.211,34.757,35.03,35.798,34.899,34.967
36.226,34.833,35.010999999999996,35.772,34.896,34.963
36.228,34.915,34.994,35.747,34.893,34.958
36.217,35.003,34.979,35.724000000000004,34.891,34.954
36.195,35.094,34.965,35.702,34.888000000000005,34.949
36.162,35.187,34.952,35.681,34.884,34.945
36.12,35.282,34.94,35.663000000000004,34.879,34.94
36.071,35.375,34.931,35.647,34.87,34.935
36.014,35.466,34.924,35.633,34.859,34.929
35.952,35.553000000000004,34.919000000000004,35.622,34.847,34.923
35.885999999999996,35.634,34.914,35.614000000000004,34.833,34.916
35.815,35.709,34.907,35.608000000000004,34.818000000000005,34.91
35.741,35.777,34.897,35.604,34.804,34.904
35.664,35.836999999999996,34.883,35.6,34.79,34.898
35.586999999999996,35.89,34.864000000000004,35.597,34.775999999999996,34.893
35.508,35.935,34.842,35.592,34.763000000000005,34.889
35.429,35.973,34.815,35.586,34.748000000000005,34.887
35.349000000000004,36.003,34.785,35.576,34.733000000000004,34.885999999999996
35.27,36.027,34.753,35.563,34.717,34.887
35.192,36.043,34.719,35.544000000000004,34.701,34.891
35.117,36.053000000000004,34.684,35.521,34.685,34.897
35.044000000000004,36.056999999999995,34.649,35.493,34.671,34.905
34.975,36.055,34.616,35.461999999999996,34.658,34.914
34.908,36.048,34.585,35.428000000000004,34.649,34.926
34.846,36.037,34.559,35.393,34.643,34.939
34.786,36.022,34.537,35.359,34.641,34.953
34.73,36.005,34.52,35.324,34.643,34.967
34.678000000000004,35.986999999999995,34.508,35.291,34.646,34.981
34.629,35.968,34.5,35.26,34.65,34.993
34.585,35.949,34.496,35.23,34.653,35.004
34.544000000000004,35.929,34.496,35.202,34.653,35.012
34.507,35.908,34.498000000000005,35.175,34.652,35.019
34.474000000000004,35.888000000000005,34.501,35.15,34.649,35.023
34.445,35.867,34.506,35.125,34.647,35.024
34.42,35.847,34.512,35.099000000000004,34.646,35.021
34.400999999999996,35.829,34.516999999999996,35.074,34.647,35.014
34.385,35.812,34.521,35.047,34.650999999999996,35.004
34.373000000000005,35.795,34.521,35.019,34.661,34.99
34.363,35.778,34.519,34.99,34.675,34.974000000000004
34.356,35.762,34.512,34.959,34.694,34.954
34.351,35.744,34.501,34.928000000000004,34.719,34.931
34.349000000000004,35.726,34.485,34.896,34.75,34.905
34.348,35.705999999999996,34.466,34.863,34.788000000000004,34.876
34.347,35.684,34.442,34.829,34.832,34.845
34.348,35.66,34.415,34.794000000000004,34.884,34.813
34.348,35.634,34.387,34.758,34.943000000000005,34.781
34.349000000000004,35.607,34.359,34.723,35.009,34.749
34.35,35.58,34.332,34.688,35.083,34.719
34.352,35.552,34.306999999999995,34.653,35.161,34.69
34.353,35.525,34.284,34.62,35.245,34.663000000000004
34.356,35.497,34.263000000000005,34.586999999999996,35.330999999999996,34.639
34.357,35.469,34.245,34.556,35.418,34.619
34.359,35.441,34.231,34.525999999999996,35.504,34.601
34.361,35.415,34.219,34.498000000000005,35.586999999999996,34.586
34.363,35.389,34.209,34.473,35.666,34.574
34.366,35.366,34.203,34.45,35.739000000000004,34.564
34.369,35.345,34.199,34.43,35.804,34.556999999999995
34.372,35.327,34.196999999999996,34.413000000000004,35.86,34.552
34.374,35.313,34.195,34.397,35.906,34.549
34.375,35.301,34.193000000000005,34.383,35.941,34.547
34.376999999999995,35.291,34.19,34.369,35.967,34.547
34.378,35.284,34.185,34.355,35.983000000000004,34.548
34.379,35.278,34.18,34.339,35.99,34.55
34.38,35.273,34.174,34.321999999999996,35.99,34.553000000000004
34.381,35.271,34.167,34.303000000000004,35.984,34.555
34.382,35.271,34.162,34.282,35.972,34.556
34.382,35.274,34.16,34.258,35.957,34.556
34.382,35.279,34.161,34.233000000000004,35.937,34.553000000000004
34.381,35.287,34.166,34.207,35.915,34.548
34.379,35.297,34.179,34.18,35.889,34.541
34.376,35.309,34.199,34.152,35.859,34.532
34.371,35.323,34.23,34.125,35.826,34.519
34.364000000000004,35.336999999999996,34.272,34.099000000000004,35.79,34.504
34.355,35.351,34.326,34.074,35.753,34.486999999999995
34.344,35.364000000000004,34.393,34.052,35.716,34.468
34.330999999999996,35.375,34.473,34.034,35.679,34.446999999999996
34.314,35.384,34.565,34.019,35.645,34.426
34.294000000000004,35.391,34.668,34.007,35.614000000000004,34.404
34.271,35.396,34.781,33.999,35.588,34.382
34.244,35.399,34.902,33.994,35.565,34.36
34.213,35.400999999999996,35.03,33.99,35.546,34.34
34.179,35.400999999999996,35.164,33.986999999999995,35.53,34.321
34.143,35.4,35.3,33.984,35.515,34.305
34.106,35.397,35.436,33.98,35.5,34.292
34.068000000000005,35.391,35.57,33.972,35.486,34.28
34.027,35.381,35.698,33.961,35.471,34.27
33.983000000000004,35.369,35.818000000000005,33.945,35.455,34.263000000000005
33.937,35.353,35.928000000000004,33.924,35.438,34.258
33.889,35.335,36.025999999999996,33.898,35.422,34.254
33.84,35.314,36.111,33.868,35.405,34.251
33.79,35.291,36.181999999999995,33.835,35.389,34.247
33.742,35.266,36.239000000000004,33.802,35.374,34.243
33.696,35.24,36.281,33.769,35.359,34.239000000000004
33.654,35.213,36.31,33.738,35.345,34.238
33.615,35.185,36.326,33.71,35.33,34.238
33.58,35.157,36.33,33.687,35.314,34.239000000000004
33.551,35.126999999999995,36.323,33.67,35.297,34.243
33.525999999999996,35.097,36.306999999999995,33.657,35.28,34.25
33.506,35.066,36.284,33.649,35.263000000000005,34.26
33.491,35.034,36.255,33.644,35.247,34.275
33.48,35.003,36.221,33.641999999999996,35.234,34.295
33.474000000000004,34.971,36.184,33.64,35.224000000000004,34.32
33.472,34.941,36.145,33.639,35.218,34.35
33.474000000000004,34.911,36.104,33.635,35.215,34.385
33.478,34.882,36.063,33.628,35.216,34.427
33.484,34.853,36.023,33.618,35.221,34.476
33.489000000000004,34.826,35.986,33.604,35.228,34.533
33.491,34.799,35.952,33.586,35.236999999999995,34.599000000000004
33.491,34.772,35.923,33.564,35.247,34.673
33.486,34.746,35.899,33.539,35.258,34.754
33.477,34.721,35.88,33.514,35.269,34.845
33.461,34.696999999999996,35.865,33.488,35.28,34.944
33.439,34.675,35.855,33.464,35.29,35.052
33.41,34.655,35.847,33.442,35.3,35.167
33.376,34.635999999999996,35.842,33.424,35.309,35.288000000000004
33.339,34.619,35.838,33.409,35.317,35.412
33.298,34.603,35.834,33.399,35.323,35.537
33.255,34.588,35.83,33.391999999999996,35.328,35.662
33.213,34.574,35.824,33.388000000000005,35.332,35.783
33.172,34.561,35.816,33.388000000000005,35.336,35.899
33.134,34.549,35.803000000000004,33.397,35.34,36.007
33.101,34.539,35.787,33.416,35.345,36.106
33.075,34.53,35.765,33.442,35.349000000000004,36.195
33.058,34.523,35.74,33.474000000000004,35.352,36.272
33.052,34.516999999999996,35.711999999999996,33.506,35.353,36.336999999999996
33.056999999999995,34.514,35.681999999999995,33.534,35.351,36.39
33.076,34.510999999999996,35.65,33.556,35.346,36.43
33.113,34.51,35.618,33.567,35.336999999999996,36.458
33.173,34.509,35.586999999999996,33.567,35.325,36.473
33.264,34.509,35.556,33.555,35.311,36.476
33.381,34.508,35.527,33.53,35.295,36.468
33.516999999999996,34.508,35.5,33.495,35.279,36.449
33.666,34.507,35.477,33.451,35.264,36.421
33.826,34.505,35.458,33.402,35.25,36.384
33.995,34.503,35.443000000000005,33.348,35.238,36.339
34.171,34.501,35.434,33.294000000000004,35.226,36.287
34.353,34.499,35.428000000000004,33.241,35.211999999999996,36.231
34.539,34.497,35.427,33.194,35.196999999999996,36.171
34.726,34.496,35.429,33.153,35.178000000000004,36.11
34.912,34.494,35.434,33.122,35.158,36.049
35.095,34.491,35.441,33.102,35.135,35.988
35.274,34.486,35.45,33.095,35.111999999999995,35.929
35.446,34.48,35.46,33.103,35.089,35.873000000000005
35.609,34.474000000000004,35.471,33.126,35.069,35.821999999999996
35.759,34.468,35.482,33.165,35.051,35.775999999999996
35.895,34.463,35.491,33.219,35.036,35.734
36.015,34.459,35.497,33.289,35.023,35.698
36.119,34.458,35.5,33.374,35.010999999999996,35.666
36.205,34.458,35.5,33.474000000000004,35.0,35.638000000000005
36.273,34.461,35.497,33.588,34.986999999999995,35.614000000000004
36.323,34.468,35.49,33.714,34.973,35.595
36.355,34.479,35.479,33.852,34.957,35.579
36.371,34.494,35.466,33.999,34.94,35.566
36.371,34.515,35.451,34.154,34.921,35.556
36.357,34.543,35.431999999999995,34.312,34.903,35.549
36.330999999999996,34.579,35.413000000000004,34.471,34.885,35.543
36.293,34.625,35.393,34.629,34.868,35.54
36.246,34.68,35.372,34.781,34.852,35.538000000000004
36.191,34.744,35.352,34.927,34.838,35.537
36.13,34.818000000000005,35.333,35.064,34.825,35.534
36.065,34.9,35.315,35.191,34.813,35.53
36.0,34.989000000000004,35.299,35.308,34.802,35.524
35.934,35.083,35.284,35.414,34.791,35.516
35.87,35.18,35.27,35.509,34.78,35.507
35.809,35.279,35.258,35.593,34.769,35.497
35.75,35.378,35.246,35.666,34.759,35.486
35.696,35.476,35.236,35.727,34.748000000000005,35.474000000000004
35.647,35.571999999999996,35.226,35.775999999999996,34.736999999999995,35.461999999999996
35.604,35.663000000000004,35.215,35.813,34.725,35.449
35.564,35.748000000000005,35.204,35.836999999999996,34.713,35.438
35.529,35.825,35.191,35.85,34.701,35.428000000000004
35.496,35.894,35.176,35.851,34.688,35.422
35.467,35.953,35.16,35.843,34.676,35.418
35.439,36.001999999999995,35.14,35.825,34.666,35.417
35.412,36.043,35.118,35.801,34.657,35.42
35.385999999999996,36.075,35.092,35.772,34.650999999999996,35.426
35.36,36.099000000000004,35.062,35.742,34.647,35.435
35.332,36.116,35.029,35.711999999999996,34.645,35.448
35.302,36.128,34.992,35.685,34.644,35.464
35.271,36.133,34.954,35.662,34.645,35.483000000000004
35.239000000000004,36.134,34.916,35.646,34.646,35.503
35.204,36.13,34.878,35.635999999999996,34.648,35.525
35.168,36.123000000000005,34.841,35.633,34.653,35.548
35.13,36.111999999999995,34.806,35.635999999999996,34.66,35.571999999999996
35.091,36.098,34.774,35.644,34.671,35.597
35.05,36.08,34.744,35.656,34.689,35.622
35.009,36.061,34.718,35.67,34.714,35.646
34.969,36.041,34.696,35.684,34.747,35.666
34.93,36.021,34.677,35.696,34.789,35.684
34.891999999999996,36.001,34.662,35.705999999999996,34.839,35.699
34.857,35.983000000000004,34.649,35.713,34.897,35.71
34.825,35.966,34.638000000000005,35.715,34.96,35.718
34.798,35.95,34.63,35.711999999999996,35.029,35.721
34.777,35.936,34.623000000000005,35.705999999999996,35.102,35.719
34.762,35.922,34.618,35.695,35.179,35.713
34.754,35.909,34.613,35.681,35.26,35.702
34.751,35.897,34.608000000000004,35.663000000000004,35.343,35.687
34.753,35.885999999999996,34.603,35.643,35.429,35.668
34.760999999999996,35.876,34.597,35.622,35.516,35.646
34.774,35.866,34.591,35.599000000000004,35.603,35.619
34.791,35.856,34.582,35.575,35.689,35.586999999999996
34.812,35.846,34.571,35.551,35.769,35.553000000000004
34.835,35.834,34.556,35.528,35.842,35.515
34.859,35.82,34.538000000000004,35.505,35.906,35.477
34.882,35.803000000000004,34.516,35.481,35.959,35.437
34.905,35.784,34.491,35.458,36.001999999999995,35.397
34.925,35.763000000000005,34.464,35.434,36.035,35.357
34.943000000000005,35.74,34.435,35.409,36.059,35.317
34.957,35.714,34.405,35.384,36.074,35.278
34.967,35.688,34.376,35.358000000000004,36.080999999999996,35.241
34.973,35.661,34.348,35.333,36.082,35.207
34.974000000000004,35.635,34.321999999999996,35.308,36.077,35.176
34.97,35.608000000000004,34.299,35.284,36.066,35.147
34.963,35.582,34.279,35.260999999999996,36.05,35.12
34.952,35.556999999999995,34.263000000000005,35.24,36.027,35.096
34.938,35.534,34.251,35.222,35.997,35.075
34.92,35.510999999999996,34.243,35.205999999999996,35.958,35.056999999999995
34.899,35.489000000000004,34.24,35.192,35.912,35.044000000000004
34.876,35.469,34.241,35.18,35.86,35.035
34.852,35.451,34.246,35.169000000000004,35.806,35.028
34.826,35.437,34.251999999999995,35.159,35.751,35.024
34.799,35.425,34.259,35.148,35.698,35.022
34.77,35.417,34.264,35.138000000000005,35.65,35.02
34.738,35.411,34.268,35.128,35.607,35.019
34.704,35.407,34.269,35.119,35.569,35.016
34.669000000000004,35.405,34.266999999999996,35.111999999999995,35.539,35.010999999999996
34.633,35.405,34.263000000000005,35.105,35.514,35.001999999999995
34.597,35.407,34.256,35.1,35.495,34.989000000000004
34.56,35.411,34.246,35.097,35.481,34.971
34.525,35.417,34.234,35.095,35.471,34.949
34.49,35.424,34.218,35.094,35.464,34.925
34.455999999999996,35.433,34.199,35.094,35.459,34.898
34.424,35.442,34.178000000000004,35.094,35.454,34.869
34.394,35.452,34.155,35.094,35.45,34.839
34.365,35.461999999999996,34.131,35.094,35.444,34.809
34.338,35.47,34.107,35.093,35.436,34.779
34.311,35.477,34.083,35.088,35.427,34.75
34.285,35.481,34.061,35.08,35.416,34.722
34.257,35.484,34.041,35.067,35.404,34.695
34.23,35.484,34.023,35.05,35.391999999999996,34.671
34.202,35.482,34.007,35.028,35.381,34.648
34.173,35.478,33.994,35.001999999999995,35.37,34.628
34.143,35.474000000000004,33.985,34.974000000000004,35.36,34.611
34.111999999999995,35.468,33.979,34.944,35.352,34.596
34.079,35.46,33.978,34.912,35.344,34.584
34.044000000000004,35.452,33.983000000000004,34.88,35.336999999999996,34.573
34.007,35.441,33.995,34.848,35.33,34.566
33.969,35.428000000000004,34.014,34.817,35.325,34.562
33.929,35.414,34.042,34.786,35.32,34.562
33.888000000000005,35.398,34.078,34.757,35.316,34.564
33.845,35.381,34.123000000000005,34.729,35.315,34.569
33.801,35.361999999999995,34.176,34.702,35.317,34.575
33.755,35.343,34.24,34.676,35.323,34.582
33.71,35.323,34.313,34.650999999999996,35.333,34.589
33.664,35.301,34.396,34.625,35.346,34.597
33.619,35.278,34.488,34.6,35.361,34.605
33.574,35.254,34.588,34.575,35.376,34.61
33.531,35.228,34.694,34.549,35.391999999999996,34.613
33.49,35.201,34.806,34.524,35.407,34.613
33.453,35.173,34.922,34.499,35.421,34.61
33.418,35.145,35.039,34.474000000000004,35.435,34.604
33.388000000000005,35.117,35.156,34.449,35.448,34.596
33.363,35.088,35.273,34.427,35.46,34.583
33.341,35.061,35.385999999999996,34.407,35.471,34.567
33.323,35.034,35.495,34.389,35.482,34.546
33.308,35.007,35.599000000000004,34.374,35.493,34.522
33.295,34.982,35.696,34.36,35.503,34.496
33.285,34.955999999999996,35.787,34.349000000000004,35.512,34.469
33.278,34.929,35.869,34.338,35.519,34.442
33.273,34.902,35.944,34.329,35.522,34.415
33.268,34.874,36.010999999999996,34.32,35.522,34.391
33.260999999999996,34.846,36.069,34.311,35.519,34.371
33.254,34.817,36.117,34.301,35.510999999999996,34.357
33.244,34.79,36.156,34.291,35.501,34.351
33.233000000000004,34.764,36.187,34.279,35.486999999999995,34.356
33.221,34.739000000000004,36.207,34.266,35.472,34.372
33.207,34.717,36.219,34.251999999999995,35.455999999999996,34.400999999999996
33.191,34.695,36.221,34.236,35.44,34.445
33.175,34.675,36.215,34.218,35.423,34.503
33.158,34.657,36.202,34.198,35.406,34.577
33.14,34.64,36.181999999999995,34.178000000000004,35.389,34.665
33.124,34.626,36.156,34.157,35.37,34.768
33.11,34.614000000000004,36.126,34.135999999999996,35.35,34.884
33.1,34.605,36.091,34.115,35.329,35.01
33.096,34.598,36.054,34.094,35.306,35.145
33.1,34.594,36.014,34.074,35.282,35.287
33.113,34.593,35.974000000000004,34.055,35.257,35.433
33.138000000000005,34.593,35.933,34.036,35.233000000000004,35.579
33.178000000000004,34.596,35.891999999999996,34.019,35.21,35.723
33.234,34.599000000000004,35.852,34.003,35.188,35.861
33.306999999999995,34.602,35.814,33.988,35.167,35.991
33.396,34.603,35.778,33.975,35.148,36.111999999999995
33.503,34.604,35.746,33.965,35.13,36.22
33.626999999999995,34.602,35.718,33.955999999999996,35.113,36.317
33.766999999999996,34.598,35.692,33.948,35.098,36.4
33.92,34.593,35.67,33.941,35.084,36.469
34.083,34.586,35.652,33.935,35.071,36.523
34.254,34.578,35.637,33.929,35.059,36.563
34.43,34.57,35.626,33.921,35.046,36.59
34.606,34.562,35.618,33.912,35.034,36.604
34.779,34.553000000000004,35.611999999999995,33.902,35.023,36.607
34.946999999999996,34.543,35.607,33.889,35.010999999999996,36.6
35.107,34.532,35.603,33.874,34.998000000000005,36.583
35.255,34.52,35.6,33.857,34.985,36.559
35.389,34.508,35.595,33.838,34.971,36.53
35.506,34.497,35.59,33.818000000000005,34.957,36.496
35.605,34.486999999999995,35.583,33.798,34.943000000000005,36.46
35.686,34.478,35.575,33.777,34.929,36.422
35.747,34.47,35.566,33.758,34.915,36.383
35.789,34.461999999999996,35.554,33.74,34.902,36.345
35.813,34.454,35.539,33.724000000000004,34.888000000000005,36.306
35.821,34.446999999999996,35.522,33.711,34.873000000000005,36.27
35.813,34.441,35.501999999999995,33.701,34.858000000000004,36.236
35.792,34.437,35.481,33.694,34.843,36.205
35.758,34.436,35.459,33.689,34.828,36.176
35.713,34.44,35.438,33.686,34.813,36.149
35.659,34.451,35.42,33.683,34.801,36.124
35.596,34.468,35.402,33.681,34.791,36.1
35.527,34.495,35.387,33.679,34.783,36.077
35.454,34.531,35.375,33.675,34.777,36.054
35.376999999999995,34.578,35.365,33.669000000000004,34.773,36.031
35.3,34.635,35.358000000000004,33.661,34.769,36.009
35.221,34.704,35.353,33.65,34.765,35.986
35.143,34.782,35.351,33.635999999999996,34.76,35.961999999999996
35.067,34.868,35.351,33.619,34.754,35.938
34.994,34.963,35.353,33.599000000000004,34.747,35.913000000000004
34.926,35.064,35.357,33.578,34.74,35.887
34.863,35.17,35.363,33.555,34.736,35.86
34.806999999999995,35.278,35.371,33.533,34.736,35.830999999999996
34.756,35.389,35.381,33.513000000000005,34.742,35.801
34.711,35.498000000000005,35.391999999999996,33.494,34.755,35.769
34.671,35.605,35.402,33.478,34.775999999999996,35.738
34.638000000000005,35.707,35.412,33.464,34.806,35.708
34.609,35.803000000000004,35.419000000000004,33.455,34.843,35.679
34.586999999999996,35.891,35.424,33.448,34.889,35.653
34.57,35.971,35.426,33.445,34.942,35.63
34.556999999999995,36.042,35.425,33.444,35.001999999999995,35.609
34.547,36.104,35.42,33.445,35.069,35.592
34.539,36.158,35.411,33.446,35.141999999999996,35.579
34.531,36.204,35.397,33.446999999999996,35.221,35.57
34.523,36.242,35.379,33.446999999999996,35.305,35.566
34.513000000000005,36.272,35.357,33.444,35.391999999999996,35.567
34.501,36.294000000000004,35.33,33.437,35.482,35.571999999999996
34.486,36.309,35.301,33.426,35.574,35.582
34.469,36.318000000000005,35.269,33.41,35.664,35.596
34.448,36.319,35.236,33.388000000000005,35.751,35.614000000000004
34.425,36.314,35.204,33.361,35.834,35.635
34.4,36.304,35.174,33.330999999999996,35.911,35.659
34.375,36.29,35.144,33.299,35.979,35.683
34.351,36.273,35.116,33.266999999999996,36.039,35.708
34.327,36.255,35.089,33.235,36.09,35.732
34.306,36.236,35.065,33.205999999999996,36.132,35.754
34.288000000000004,36.217,35.044000000000004,33.181999999999995,36.163000000000004,35.775
34.272,36.199,35.024,33.166,36.185,35.795
34.259,36.181999999999995,35.006,33.161,36.198,35.812
34.25,36.166,34.99,33.168,36.202,35.827
34.244,36.152,34.974000000000004,33.188,36.196999999999996,35.839
34.241,36.14,34.959,33.221,36.186,35.846
34.24,36.13,34.944,33.269,36.168,35.85
34.242,36.122,34.928000000000004,33.329,36.145,35.851
34.248000000000005,36.114000000000004,34.911,33.400999999999996,36.117,35.847
34.256,36.106,34.893,33.484,36.086999999999996,35.839
34.266999999999996,36.097,34.875,33.578,36.055,35.827
34.279,36.086999999999996,34.856,33.68,36.027,35.812
34.293,36.075,34.836,33.791,36.007,35.793
34.308,36.061,34.814,33.908,35.995,35.772
34.324,36.045,34.79,34.03,35.992,35.748000000000005
34.34,36.027,34.765,34.155,35.994,35.721
34.358000000000004,36.006,34.74,34.281,36.0,35.693000000000005
34.375,35.984,34.713,34.407,36.005,35.664
34.391999999999996,35.961,34.686,34.532,36.008,35.635999999999996
34.408,35.936,34.659,34.655,36.006,35.608000000000004
34.421,35.909,34.633,34.773,35.998000000000005,35.583
34.431,35.881,34.609,34.885999999999996,35.981,35.558
34.438,35.852,34.586,34.991,35.957,35.536
34.441,35.821999999999996,34.565,35.088,35.923,35.514
34.44,35.791,34.545,35.177,35.881,35.494
34.435,35.760999999999996,34.527,35.255,35.830999999999996,35.474000000000004
34.426,35.731,34.510999999999996,35.325,35.774,35.454
34.413000000000004,35.702,34.497,35.385,35.711999999999996,35.434
34.396,35.674,34.486,35.436,35.648,35.414
34.375,35.649,34.477,35.479,35.585,35.395
34.35,35.626999999999995,34.472,35.514,35.524,35.376
34.321,35.606,34.469,35.542,35.467,35.359
34.29,35.588,34.469,35.562,35.417,35.342
34.255,35.571999999999996,34.469,35.575,35.375,35.326
34.218,35.559,34.469,35.580999999999996,35.342,35.31
34.18,35.548,34.468,35.58,35.318000000000005,35.294000000000004
34.141,35.541,34.465,35.571,35.301,35.277
34.102,35.536,34.46,35.556999999999995,35.29,35.258
34.062,35.535,34.452,35.536,35.284,35.236999999999995
34.022,35.537,34.441,35.512,35.282,35.213
33.983000000000004,35.541,34.427,35.484,35.281,35.188
33.944,35.549,34.409,35.455999999999996,35.283,35.16
33.907,35.558,34.389,35.427,35.288000000000004,35.129
33.873000000000005,35.568000000000005,34.367,35.4,35.295,35.096
33.84,35.579,34.343,35.375,35.305,35.06
33.809,35.59,34.318000000000005,35.353,35.318000000000005,35.023
33.78,35.599000000000004,34.293,35.336,35.334,34.984
33.753,35.607,34.269,35.324,35.352,34.945
33.728,35.613,34.247,35.317,35.37,34.907
33.705999999999996,35.618,34.228,35.315,35.388000000000005,34.87
33.685,35.623000000000005,34.211,35.319,35.405,34.835
33.665,35.626,34.198,35.326,35.418,34.804
33.646,35.629,34.188,35.335,35.429,34.775999999999996
33.628,35.63,34.181,35.345,35.436,34.751999999999995
33.61,35.629,34.176,35.355,35.441,34.733000000000004
33.591,35.625,34.175,35.364000000000004,35.445,34.717
33.571999999999996,35.618,34.175,35.369,35.449,34.704
33.552,35.608000000000004,34.176,35.371,35.452,34.695
33.531,35.596,34.177,35.368,35.455999999999996,34.689
33.509,35.58,34.179,35.361,35.46,34.685
33.486,35.562,34.18,35.349000000000004,35.465,34.683
33.461999999999996,35.54,34.179,35.334,35.469,34.681
33.438,35.515,34.176,35.315,35.472,34.681999999999995
33.412,35.488,34.171,35.294000000000004,35.473,34.683
33.385999999999996,35.458,34.162,35.271,35.473,34.685
33.359,35.426,34.149,35.247,35.47,34.688
33.333,35.391999999999996,34.132,35.224000000000004,35.464,34.69
33.306999999999995,35.358000000000004,34.113,35.2,35.455999999999996,34.692
33.283,35.324,34.092,35.177,35.445,34.692
33.26,35.29,34.071,35.155,35.431,34.69
33.239000000000004,35.256,34.049,35.134,35.415,34.687
33.22,35.223,34.027,35.114000000000004,35.397,34.681999999999995
33.203,35.191,34.006,35.096,35.376999999999995,34.674
33.187,35.159,33.985,35.080999999999996,35.356,34.663000000000004
33.172,35.128,33.967,35.067,35.334,34.649
33.158,35.097,33.951,35.056999999999995,35.313,34.633
33.146,35.065,33.939,35.048,35.293,34.616
33.135,35.033,33.931999999999995,35.042,35.274,34.597
33.125,35.001,33.931999999999995,35.038000000000004,35.254,34.577
33.117,34.968,33.939,35.036,35.235,34.556
33.11,34.936,33.955999999999996,35.035,35.215,34.534
33.104,34.905,33.983000000000004,35.034,35.194,34.513000000000005
33.098,34.875,34.021,35.034,35.171,34.491
33.094,34.847,34.071,35.033,35.146,34.471
33.091,34.82,34.134,35.03,35.122,34.453
33.089,34.794000000000004,34.209,35.025999999999996,35.098,34.436
33.089,34.77,34.296,35.021,35.076,34.421
33.09,34.748000000000005,34.395,35.014,35.058,34.409
33.092,34.728,34.503,35.006,35.042,34.4
33.096,34.71,34.619,34.998000000000005,35.03,34.395
33.102,34.694,34.741,34.99,35.019,34.395
33.111,34.681,34.866,34.984,35.009,34.4
33.122,34.67,34.992,34.979,34.998000000000005,34.411
33.138000000000005,34.661,35.115,34.975,34.986,34.43
33.157,34.655,35.234,34.973,34.973,34.457
33.181999999999995,34.649,35.347,34.973,34.958,34.493
33.214,34.646,35.453,34.973,34.943000000000005,34.541
33.255,34.643,35.55,34.972,34.928000000000004,34.6
33.306999999999995,34.64,35.638000000000005,34.971,34.915,34.671
33.369,34.637,35.717,34.966,34.904,34.754
33.443000000000005,34.633,35.785,34.958,34.894,34.848
33.529,34.63,35.844,34.946,34.885999999999996,34.952
33.625,34.625,35.893,34.927,34.876999999999995,35.064
33.733000000000004,34.621,35.934,34.904,34.866,35.181999999999995
33.85,34.616,35.964,34.875,34.853,35.304
33.977,34.611999999999995,35.979,34.842,34.838,35.428000000000004
34.11,34.609,35.978,34.806,34.821,35.552
34.248000000000005,34.606,35.961999999999996,34.766,34.802,35.675
34.388000000000005,34.602,35.933,34.726,34.782,35.794000000000004
34.53,34.598,35.896,34.686,34.763000000000005,35.909
34.67,34.592,35.855,34.647,34.746,36.018
34.806,34.584,35.813,34.611,34.73,36.121
34.935,34.574,35.774,34.579,34.717,36.215
35.056,34.564,35.74,34.552,34.705999999999996,36.301
35.167,34.553000000000004,35.713,34.53,34.696999999999996,36.378
35.266999999999996,34.541,35.693000000000005,34.512,34.689,36.446
35.355,34.529,35.68,34.498000000000005,34.681999999999995,36.505
35.431,34.515,35.672,34.488,34.676,36.554
35.493,34.501,35.667,34.481,34.67,36.595
35.541,34.485,35.666,34.475,34.665,36.625
35.574,34.468,35.665,34.469,34.66,36.647
35.593,34.45,35.664,34.463,34.656,36.66
35.598,34.433,35.661,34.455,34.652,36.664
35.59,34.416,35.656,34.445,34.650999999999996,36.661
35.57,34.400999999999996,35.647,34.433,34.652,36.65
35.539,34.387,35.634,34.419000000000004,34.656,36.633
35.497,34.376,35.618,34.403,34.664,36.61
35.446,34.368,35.598,34.384,34.677,36.583
35.387,34.363,35.576,34.364000000000004,34.696999999999996,36.552
35.321999999999996,34.363,35.551,34.341,34.725,36.518
35.251999999999995,34.37,35.525,34.317,34.762,36.481
35.179,34.383,35.498000000000005,34.292,34.808,36.442
35.102,34.404,35.471,34.266,34.861999999999995,36.400999999999996
35.024,34.434,35.445,34.241,34.923,36.359
34.945,34.473,35.419000000000004,34.218,34.99,36.315
34.866,34.523,35.395,34.196999999999996,35.062,36.27
34.789,34.583,35.374,34.178000000000004,35.138000000000005,36.226
34.714,34.654,35.357,34.164,35.218,36.181999999999995
34.641999999999996,34.734,35.344,34.153,35.301,36.138000000000005
34.574,34.823,35.334,34.147,35.388000000000005,36.095
34.51,34.918,35.329,34.145,35.477,36.052
34.45,35.018,35.326,34.146,35.568000000000005,36.01
34.397,35.121,35.326,34.150999999999996,35.657,35.969
34.348,35.224000000000004,35.328,34.156,35.742,35.929
34.305,35.328,35.33,34.162,35.821,35.89
34.266999999999996,35.43,35.332,34.167,35.893,35.853
34.234,35.528,35.333,34.169000000000004,35.955,35.817
34.205,35.622,35.334,34.168,36.008,35.783
34.178000000000004,35.71,35.333,34.163000000000004,36.051,35.754
34.155,35.791,35.332,34.153,36.084,35.733000000000004
34.135,35.864000000000004,35.33,34.139,36.11,35.72
34.119,35.928000000000004,35.327,34.121,36.128,35.716
34.105,35.982,35.323,34.101,36.14,35.718
34.094,36.025999999999996,35.317,34.078,36.146,35.725
34.085,36.061,35.311,34.055,36.146,35.733000000000004
34.077,36.086999999999996,35.304,34.033,36.14,35.743
34.07,36.104,35.297,34.014,36.129,35.751
34.064,36.114000000000004,35.292,33.997,36.113,35.758
34.059,36.118,35.29,33.983000000000004,36.093,35.762
34.055,36.117,35.289,33.973,36.068000000000005,35.764
34.052,36.113,35.291,33.967,36.041,35.765
34.051,36.104,35.295,33.965,36.01,35.765
34.051,36.093,35.3,33.966,35.977,35.765
34.052,36.078,35.305,33.97,35.942,35.764
34.055,36.062,35.311,33.975,35.907,35.764
34.059,36.044000000000004,35.318000000000005,33.98,35.871,35.765
34.064,36.025,35.324,33.983000000000004,35.835,35.766999999999996
34.07,36.007,35.329,33.983000000000004,35.801,35.77
34.077,35.989000000000004,35.333,33.98,35.768,35.774
34.086,35.971,35.335,33.973,35.736999999999995,35.779
34.095,35.953,35.334,33.961,35.708,35.785
34.107,35.935,35.33,33.945,35.68,35.791
34.119,35.916,35.323,33.926,35.653,35.797
34.133,35.896,35.314,33.903,35.626,35.802
34.149,35.876,35.301,33.879,35.598,35.806999999999995
34.166,35.855,35.285,33.854,35.57,35.811
34.185,35.834,35.264,33.83,35.542,35.813
34.205,35.813,35.24,33.809,35.513000000000005,35.815
34.226,35.792,35.211,33.791,35.485,35.815
34.247,35.771,35.178000000000004,33.779,35.458,35.815
34.269,35.749,35.141,33.772,35.433,35.813
34.29,35.726,35.102,33.771,35.41,35.811
34.31,35.702,35.063,33.774,35.39,35.806999999999995
34.33,35.678000000000004,35.025,33.78,35.372,35.803000000000004
34.348,35.650999999999996,34.99,33.787,35.356,35.797
34.364000000000004,35.623000000000005,34.958,33.794000000000004,35.342,35.79
34.376999999999995,35.594,34.929,33.799,35.33,35.781
34.385999999999996,35.564,34.903,33.8,35.32,35.771
34.391999999999996,35.534,34.88,33.796,35.311,35.760999999999996
34.394,35.505,34.86,33.787,35.306,35.749
34.391999999999996,35.477,34.843,33.773,35.303000000000004,35.738
34.385999999999996,35.449,34.829,33.754,35.304,35.727
34.375,35.422,34.818000000000005,33.731,35.308,35.717
34.361,35.396,34.809,33.704,35.317,35.705999999999996
34.342,35.37,34.8,33.676,35.329,35.694
34.319,35.346,34.791,33.648,35.344,35.681999999999995
34.294000000000004,35.324,34.781,33.621,35.361,35.669000000000004
34.266,35.304,34.769,33.595,35.379,35.655
34.236,35.286,34.755,33.571999999999996,35.397,35.638000000000005
34.203,35.272,34.74,33.552,35.414,35.618
34.168,35.26,34.723,33.535,35.431999999999995,35.595
34.131,35.25,34.704,33.52,35.45,35.57
34.092,35.244,34.684,33.507,35.467,35.542
34.052,35.239000000000004,34.661,33.495,35.483000000000004,35.513000000000005
34.012,35.236,34.638000000000005,33.485,35.498000000000005,35.481
33.971,35.234,34.613,33.475,35.512,35.448
33.931999999999995,35.232,34.589,33.465,35.523,35.413000000000004
33.895,35.23,34.565,33.453,35.532,35.376
33.861,35.228,34.541,33.441,35.538000000000004,35.338
33.83,35.226,34.518,33.426,35.54,35.299
33.804,35.224000000000004,34.497,33.41,35.54,35.26
33.783,35.222,34.477,33.391999999999996,35.538000000000004,35.221
33.765,35.221,34.459,33.372,35.533,35.183
33.751,35.22,34.444,33.352,35.525999999999996,35.147
33.739000000000004,35.219,34.431999999999995,33.333,35.518,35.113
33.73,35.217,34.422,33.316,35.508,35.080999999999996
33.723,35.214,34.413000000000004,33.302,35.496,35.052
33.718,35.21,34.407,33.293,35.483000000000004,35.025999999999996
33.715,35.203,34.402,33.292,35.47,35.003
33.711,35.196,34.398,33.299,35.455,34.983000000000004
33.708,35.187,34.395,33.317,35.44,34.966
33.705,35.177,34.391999999999996,33.346,35.425,34.952
33.701,35.166,34.39,33.388000000000005,35.409,34.942
33.696,35.150999999999996,34.388000000000005,33.443000000000005,35.391999999999996,34.934
33.69,35.134,34.385,33.510999999999996,35.375,34.928000000000004
33.683,35.115,34.382,33.59,35.357,34.923
33.674,35.094,34.376,33.679,35.336999999999996,34.919000000000004
33.662,35.07,34.367,33.777,35.316,34.914
33.649,35.044000000000004,34.356,33.881,35.293,34.909
33.633,35.016,34.341,33.991,35.271,34.903
33.615,34.986999999999995,34.324,34.104,35.249,34.896
33.596,34.957,34.305,34.217,35.228,34.888000000000005
33.576,34.927,34.285,34.329,35.209,34.879
33.554,34.896,34.263000000000005,34.438,35.193000000000005,34.87
33.531,34.865,34.241,34.542,35.179,34.86
33.507,34.834,34.218,34.639,35.168,34.848
33.484,34.802,34.196999999999996,34.729,35.158,34.835
33.461,34.77,34.176,34.81,35.149,34.821999999999996
33.439,34.736,34.157,34.883,35.138000000000005,34.806999999999995
33.418,34.702,34.14,34.946,35.125,34.792
33.399,34.668,34.126,35.0,35.111,34.775
33.384,34.634,34.115,35.045,35.093,34.758
33.372,34.601,34.106,35.082,35.075,34.739000000000004
33.364000000000004,34.57,34.1,35.111999999999995,35.055,34.72
33.361,34.54,34.096,35.135,35.036,34.702
33.363,34.51,34.094,35.153,35.019,34.684
33.371,34.482,34.094,35.166,35.004,34.668
33.384,34.455,34.095,35.175,34.991,34.653
33.405,34.43,34.097,35.181,34.981,34.641
33.433,34.405,34.102,35.183,34.972,34.63
33.471,34.383,34.111,35.181,34.963,34.621
33.52,34.361999999999995,34.123000000000005,35.175,34.953,34.614000000000004
33.580999999999996,34.343,34.137,35.166,34.941,34.608000000000004
33.654,34.326,34.150999999999996,35.152,34.927,34.602
33.74,34.311,34.162,35.134,34.913000000000004,34.596
33.838,34.298,34.168,35.111,34.898,34.59
33.949,34.286,34.168,35.085,34.883,34.585
34.071,34.274,34.161,35.056999999999995,34.869,34.580999999999996
34.202,34.263000000000005,34.148,35.028,34.856,34.578
34.34,34.251999999999995,34.128,35.001,34.844,34.575
34.484,34.241,34.103,34.976,34.834,34.571999999999996
34.63,34.231,34.071999999999996,34.955999999999996,34.825,34.569
34.778,34.221,34.039,34.941,34.817,34.567
34.924,34.211999999999996,34.004,34.931,34.81,34.566
35.065,34.205999999999996,33.968,34.926,34.802,34.57
35.199,34.202,33.934,34.928000000000004,34.794000000000004,34.579
35.324,34.2,33.900999999999996,34.934,34.785,34.595
35.438,34.201,33.873000000000005,34.944,34.775999999999996,34.62
35.54,34.205999999999996,33.85,34.955999999999996,34.768,34.654
35.629,34.211999999999996,33.835,34.97,34.759,34.699
35.704,34.219,33.83,34.984,34.751,34.756
35.764,34.225,33.834,34.996,34.744,34.825
35.81,34.229,33.851,35.006,34.739000000000004,34.907
35.841,34.232,33.881,35.012,34.736999999999995,35.001999999999995
35.86,34.232,33.924,35.014,34.738,35.108000000000004
35.867,34.229,33.98,35.010999999999996,34.742,35.225
35.864000000000004,34.224000000000004,34.048,35.001999999999995,34.75,35.352
35.851,34.216,34.13,34.989000000000004,34.760999999999996,35.486
35.829,34.205,34.222,34.97,34.777,35.626
35.8,34.192,34.324,34.948,34.798,35.769
35.764,34.176,34.434,34.923,34.823,35.913000000000004
35.723,34.157,34.548,34.897,34.854,36.055
35.678000000000004,34.135999999999996,34.665,34.871,34.891,36.193000000000005
35.631,34.113,34.782,34.846,34.935,36.327
35.583,34.089,34.897,34.823,34.988,36.453
35.534,34.065,35.009,34.803000000000004,35.048,36.57
35.485,34.04,35.116,34.785,35.118,36.677
35.435,34.016999999999996,35.219,34.771,35.196999999999996,36.772
35.384,33.995,35.316,34.76,35.285,36.854
35.333,33.975,35.407,34.753,35.378,36.923
35.28,33.958,35.491,34.75,35.476,36.978
35.224000000000004,33.944,35.568000000000005,34.751,35.576,37.021
35.167,33.934,35.637,34.755,35.673,37.05
35.109,33.928000000000004,35.698,34.763000000000005,35.766999999999996,37.066
35.049,33.925,35.751999999999995,34.774,35.854,37.071
34.988,33.927,35.797,34.786,35.935,37.065
34.927,33.933,35.835,34.799,36.008,37.049
34.865,33.946,35.866,34.811,36.075,37.023
34.802,33.964,35.888000000000005,34.821999999999996,36.135,36.99
34.741,33.991,35.903,34.830999999999996,36.19,36.948
34.68,34.025,35.912,34.836,36.236999999999995,36.900999999999996
34.622,34.069,35.915,34.838,36.278,36.848
34.566,34.122,35.912,34.835,36.31,36.793
34.513000000000005,34.184,35.904,34.83,36.333,36.735
34.461,34.255,35.891,34.821,36.347,36.676
34.413000000000004,34.334,35.872,34.809,36.35,36.617
34.369,34.421,35.848,34.796,36.345,36.559
34.329,34.513000000000005,35.818000000000005,34.782,36.330999999999996,36.501999999999995
34.294000000000004,34.61,35.782,34.769,36.311,36.449
34.265,34.711,35.74,34.757,36.284,36.398
34.241,34.813,35.695,34.747,36.254,36.35
34.224000000000004,34.915,35.647,34.738,36.22,36.306
34.211999999999996,35.016,35.597,34.731,36.185,36.266
34.205999999999996,35.113,35.548,34.725,36.148,36.228
34.207,35.205,35.5,34.719,36.11,36.194
34.215,35.291,35.455,34.713,36.071999999999996,36.163000000000004
34.228,35.37,35.412,34.704,36.034,36.135999999999996
34.247,35.44,35.373000000000005,34.693000000000005,35.996,36.111
34.271,35.501999999999995,35.339,34.678000000000004,35.958,36.09
34.297,35.555,35.309,34.661,35.92,36.071
34.327,35.601,35.283,34.64,35.883,36.056
34.358000000000004,35.638000000000005,35.26,34.615,35.846,36.043
34.391,35.668,35.241,34.586999999999996,35.81,36.033
34.423,35.69,35.224000000000004,34.558,35.775,36.025999999999996
34.454,35.707,35.209,34.528,35.74,36.022
34.483000000000004,35.717,35.195,34.497,35.707,36.019
34.509,35.721,35.185,34.466,35.674,36.019
34.532,35.721,35.177,34.438,35.644,36.02
34.552,35.715,35.172,34.411,35.615,36.022
34.569,35.704,35.169000000000004,34.387,35.588,36.025999999999996
34.582,35.689,35.167,34.366,35.562,36.03
34.592,35.671,35.166,34.348,35.538000000000004,36.036
34.599000000000004,35.65,35.164,34.333,35.515,36.042
34.602,35.626,35.161,34.321,35.492,36.048
34.601,35.601,35.158,34.312,35.47,36.054
34.598,35.575,35.154,34.305,35.449,36.06
34.592,35.548,35.149,34.298,35.429,36.066
34.584,35.521,35.143,34.293,35.411,36.071
34.574,35.494,35.137,34.287,35.397,36.075
34.563,35.469,35.131,34.281,35.387,36.077
34.553000000000004,35.445,35.125,34.274,35.383,36.079
34.542,35.423,35.119,34.265,35.383,36.08
34.532,35.402,35.114000000000004,34.254,35.388000000000005,36.082
34.522,35.382,35.109,34.24,35.397,36.084
34.513000000000005,35.364000000000004,35.107,34.225,35.409,36.086999999999996
34.505,35.346,35.106,34.208,35.421,36.091
34.497,35.327,35.108000000000004,34.19,35.433,36.095
34.489000000000004,35.309,35.113,34.174,35.444,36.099000000000004
34.481,35.289,35.121,34.158,35.453,36.104
34.474000000000004,35.268,35.131,34.144,35.46,36.109
34.466,35.246,35.143,34.131,35.466,36.114000000000004
34.458,35.222,35.156,34.12,35.47,36.119
34.448,35.196,35.17,34.109,35.475,36.124
34.436,35.17,35.183,34.099000000000004,35.48,36.129
34.422,35.143,35.196,34.091,35.486,36.134
34.405,35.115,35.208,34.084,35.494,36.137
34.385,35.088,35.219,34.079,35.501999999999995,36.14
34.363,35.063,35.228,34.075,35.510999999999996,36.141999999999996
34.338,35.039,35.234,34.074,35.52,36.14
34.309,35.016999999999996,35.236,34.073,35.527,36.135999999999996
34.278,34.997,35.234,34.074,35.532,36.129
34.244,34.981,35.228,34.076,35.534,36.119
34.208,34.967,35.217,34.078,35.534,36.104
34.171,34.958,35.203,34.08,35.531,36.086
34.134,34.952,35.184,34.08,35.525999999999996,36.063
34.098,34.95,35.163000000000004,34.08,35.521,36.036
34.062,34.951,35.138000000000005,34.079,35.516,36.005
34.028,34.955,35.111999999999995,34.076,35.510999999999996,35.97
33.997,34.961,35.082,34.071,35.506,35.933
33.968,34.967,35.05,34.064,35.501999999999995,35.891999999999996
33.942,34.974000000000004,35.016,34.055,35.496,35.85
33.918,34.979,34.982,34.044000000000004,35.488,35.806999999999995
33.898,34.984,34.949,34.03,35.477,35.760999999999996
33.88,34.988,34.917,34.015,35.463,35.715
33.865,34.991,34.889,33.999,35.445,35.669000000000004
33.854,34.993,34.861999999999995,33.982,35.423,35.622
33.846,34.995,34.839,33.966,35.399,35.576
33.84,34.998000000000005,34.82,33.95,35.373000000000005,35.531
33.838,35.001,34.803000000000004,33.937,35.346,35.489000000000004
33.836999999999996,35.004,34.788000000000004,33.925,35.319,35.449
33.839,35.009,34.777,33.915,35.293,35.412
33.842,35.013000000000005,34.766999999999996,33.906,35.268,35.378
33.846,35.018,34.759,33.899,35.244,35.347
33.851,35.022,34.751,33.891999999999996,35.221,35.319
33.857,35.025,34.743,33.884,35.199,35.295
33.861999999999995,35.027,34.733000000000004,33.875,35.177,35.273
33.866,35.027,34.72,33.865,35.155,35.255
33.868,35.027,34.705999999999996,33.854,35.134,35.239000000000004
33.869,35.024,34.688,33.843,35.111999999999995,35.226
33.867,35.018,34.668,33.832,35.09,35.217
33.863,35.01,34.645,33.821,35.069,35.21
33.855,35.0,34.62,33.811,35.048,35.204
33.844,34.986,34.593,33.801,35.028,35.199
33.830999999999996,34.97,34.565,33.792,35.009,35.193000000000005
33.814,34.951,34.537,33.784,34.992,35.187
33.794000000000004,34.931,34.509,33.777,34.977,35.18
33.773,34.909,34.482,33.771,34.965,35.171
33.751,34.885,34.455,33.766,34.954,35.161
33.729,34.861,34.431,33.762,34.944,35.147
33.707,34.835,34.408,33.76,34.934,35.131
33.688,34.809,34.388000000000005,33.758,34.923,35.113
33.671,34.782,34.371,33.756,34.91,35.093
33.66,34.755,34.357,33.754,34.895,35.071
33.653,34.727,34.347,33.751,34.879,35.047
33.653,34.699,34.339,33.747,34.863,35.022
33.661,34.671,34.335,33.74,34.848,34.995
33.681,34.643,34.333,33.732,34.835,34.968
33.713,34.616,34.333,33.72,34.824,34.941
33.760999999999996,34.589,34.334,33.707,34.817,34.915
33.826,34.564,34.336,33.691,34.813,34.891999999999996
33.907,34.541,34.338,33.674,34.81,34.87
34.006,34.519,34.339,33.656,34.809,34.851
34.121,34.498000000000005,34.338,33.639,34.808,34.835
34.251,34.479,34.336,33.622,34.81,34.821
34.394,34.461999999999996,34.333,33.606,34.812,34.809
34.549,34.445,34.327,33.593,34.815,34.801
34.711999999999996,34.43,34.319,33.582,34.817,34.794000000000004
34.88,34.416,34.305,33.573,34.818000000000005,34.79
35.051,34.403,34.288000000000004,33.566,34.819,34.788000000000004
35.22,34.391,34.266999999999996,33.561,34.82,34.787
35.384,34.38,34.244,33.559,34.82,34.786
35.539,34.37,34.222,33.56,34.819,34.787
35.684,34.361999999999995,34.201,33.563,34.816,34.788000000000004
35.815,34.355,34.183,33.57,34.812,34.79
35.93,34.349000000000004,34.167,33.580999999999996,34.804,34.791
36.028,34.344,34.153,33.598,34.793,34.793
36.107,34.34,34.141999999999996,33.622,34.78,34.793
36.169000000000004,34.335,34.133,33.654,34.764,34.793
36.213,34.330999999999996,34.128,33.695,34.746,34.79
36.24,34.326,34.126,33.745,34.729,34.786
36.25,34.321,34.128,33.806,34.714,34.78
36.245,34.316,34.133,33.876,34.702,34.771
36.227,34.31,34.14,33.955999999999996,34.696,34.759
36.196999999999996,34.303000000000004,34.149,34.045,34.698,34.744
36.156,34.297,34.157,34.141999999999996,34.708,34.726
36.108000000000004,34.29,34.166,34.245,34.727,34.705999999999996
36.053000000000004,34.283,34.173,34.353,34.757,34.684
35.993,34.275999999999996,34.179,34.463,34.797,34.659
35.929,34.27,34.181999999999995,34.574,34.847,34.632
35.863,34.263000000000005,34.181999999999995,34.684,34.909,34.603
35.797,34.256,34.179,34.79,34.98,34.574
35.73,34.248000000000005,34.173,34.891999999999996,35.061,34.545
35.664,34.241,34.163000000000004,34.988,35.15,34.519
35.599000000000004,34.234,34.15,35.076,35.245,34.495
35.535,34.226,34.134,35.156,35.345,34.475
35.473,34.218,34.117,35.226,35.449,34.461
35.414,34.21,34.099000000000004,35.285,35.555,34.453
35.357,34.201,34.083,35.332,35.662,34.452
35.305,34.192,34.069,35.367,35.768,34.46
35.257,34.181,34.06,35.391,35.871,34.48
35.213,34.169000000000004,34.056999999999995,35.404,35.971,34.510999999999996
35.172,34.155,34.061,35.408,36.065,34.556
35.135,34.141999999999996,34.074,35.404,36.153,34.616
35.098,34.129,34.098,35.393,36.231,34.692
35.063,34.116,34.133,35.378,36.299,34.785
35.027,34.106,34.18,35.359,36.355,34.895
34.991,34.099000000000004,34.241,35.338,36.398,35.021
34.954,34.097,34.314,35.316,36.428000000000004,35.161
34.916,34.1,34.4,35.294000000000004,36.444,35.313
34.876999999999995,34.11,34.495,35.273,36.449,35.474000000000004
34.836,34.126999999999995,34.598,35.253,36.442,35.641
34.795,34.152,34.708,35.236,36.427,35.813
34.754,34.186,34.821999999999996,35.223,36.404,35.985
34.711999999999996,34.227,34.939,35.213,36.376,36.157
34.671,34.278,35.056,35.207,36.344,36.323
34.631,34.336,35.17,35.205,36.308,36.482
34.594,34.402,35.28,35.205,36.269,36.63
34.561,34.475,35.383,35.207,36.227,36.766999999999996
34.533,34.553000000000004,35.478,35.21,36.183,36.89
34.510999999999996,34.635999999999996,35.563,35.213,36.137,37.0
34.495,34.721,35.635999999999996,35.215,36.09,37.095
34.486999999999995,34.809,35.696,35.213,36.042,37.175
34.485,34.896,35.744,35.208,35.996,37.241
34.49,34.982,35.779,35.198,35.951,37.294000000000004
34.501,35.066,35.802,35.184,35.91,37.332
34.516,35.145,35.813,35.166,35.872,37.359
34.535,35.219,35.815,35.146,35.84,37.374
34.556,35.287,35.809,35.121,35.811,37.379
34.580999999999996,35.348,35.795,35.091,35.786,37.375
34.608000000000004,35.403,35.775999999999996,35.055,35.762,37.363
34.637,35.451,35.751999999999995,35.016,35.739000000000004,37.345
34.668,35.491,35.726,34.976,35.717,37.321999999999996
34.699,35.524,35.696999999999996,34.939,35.693000000000005,37.295
34.729,35.55,35.667,34.906,35.669000000000004,37.265
34.759,35.568000000000005,35.637,34.881,35.644,37.233000000000004
34.787,35.579,35.608000000000004,34.866,35.62,37.2
34.812,35.584,35.579,34.859,35.596,37.165
34.834,35.583,35.55,34.861999999999995,35.573,37.131
34.852,35.577,35.522,34.872,35.553000000000004,37.098
34.867,35.569,35.495,34.889,35.536,37.064
34.876999999999995,35.556999999999995,35.468,34.91,35.522,37.032
34.884,35.544000000000004,35.443000000000005,34.936,35.510999999999996,36.999
34.887,35.529,35.419000000000004,34.963,35.501999999999995,36.967
34.887,35.514,35.394,34.989000000000004,35.495,36.936
34.882,35.497,35.369,35.014,35.489000000000004,36.905
34.875,35.481,35.343,35.037,35.483000000000004,36.874
34.865,35.463,35.314,35.055,35.477,36.844
34.852,35.446,35.283,35.07,35.473,36.812
34.836999999999996,35.428000000000004,35.249,35.08,35.47,36.781
34.819,35.41,35.211999999999996,35.085,35.47,36.75
34.799,35.394,35.174,35.086999999999996,35.472,36.719
34.777,35.378,35.135,35.086,35.477,36.687
34.754,35.363,35.096,35.082,35.486,36.655
34.731,35.349000000000004,35.06,35.077,35.497,36.624
34.707,35.335,35.025,35.071,35.510999999999996,36.591
34.685,35.321,34.992,35.065,35.527,36.558
34.663000000000004,35.306,34.963,35.061,35.544000000000004,36.525
34.641999999999996,35.291,34.938,35.058,35.562,36.492
34.621,35.274,34.916,35.058,35.578,36.459
34.601,35.257,34.9,35.061,35.592,36.428000000000004
34.582,35.238,34.888000000000005,35.066,35.605,36.399
34.563,35.218,34.882,35.071999999999996,35.617,36.374
34.546,35.198,34.881,35.079,35.626,36.353
34.529,35.177,34.885,35.086,35.633,36.336
34.513000000000005,35.156,34.893,35.092,35.64,36.324
34.497,35.135999999999996,34.905,35.095,35.644,36.317
34.48,35.117,34.921,35.097,35.648,36.313
34.461999999999996,35.098,34.94,35.095,35.650999999999996,36.312
34.442,35.08,34.963,35.089,35.650999999999996,36.315
34.421,35.064,34.986999999999995,35.08,35.650999999999996,36.321999999999996
34.398,35.049,35.010999999999996,35.068000000000005,35.647,36.330999999999996
34.373000000000005,35.035,35.036,35.051,35.641999999999996,36.343
34.346,35.023,35.06,35.032,35.633,36.358000000000004
34.318000000000005,35.012,35.082,35.01,35.622,36.376
34.287,35.003,35.102,34.986999999999995,35.608000000000004,36.395
34.255,34.997,35.12,34.964,35.592,36.416
34.222,34.992,35.133,34.941,35.575,36.437
34.189,34.988,35.141999999999996,34.919000000000004,35.556999999999995,36.458
34.155,34.986,35.147,34.899,35.538000000000004,36.478
34.122,34.986,35.148,34.881,35.518,36.496
34.088,34.988,35.144,34.865,35.498000000000005,36.510999999999996
34.055,34.993,35.138000000000005,34.85,35.478,36.523
34.023,35.0,35.13,34.836999999999996,35.455999999999996,36.531
33.992,35.010999999999996,35.12,34.823,35.435,36.537
33.963,35.024,35.11,34.809,35.412,36.538000000000004
33.937,35.038000000000004,35.1,34.794000000000004,35.385,36.536
33.915,35.054,35.091,34.778,35.35,36.528
33.897,35.068000000000005,35.083,34.76,35.305,36.516
33.883,35.080999999999996,35.077,34.74,35.254,36.499
33.872,35.091,35.073,34.72,35.2,36.478
33.865,35.098,35.07,34.698,35.145,36.454
33.861,35.101,35.068000000000005,34.677,35.093,36.426
33.858000000000004,35.101,35.066,34.655,35.047,36.395
33.857,35.097,35.064,34.635,35.01,36.361999999999995
33.856,35.092,35.061,34.615,34.982,36.328
33.856,35.085,35.056999999999995,34.597,34.964,36.293
33.856,35.077,35.051,34.58,34.955999999999996,36.258
33.856,35.07,35.043,34.565,34.955,36.223
33.857,35.062,35.032,34.553000000000004,34.959,36.189
33.856,35.055,35.02,34.542,34.967,36.156
33.855,35.047,35.003,34.534,34.976,36.125
33.853,35.039,34.983000000000004,34.527,34.985,36.095
33.848,35.03,34.959,34.521,34.993,36.067
33.842,35.02,34.931999999999995,34.518,34.999,36.04
33.834,35.007,34.900999999999996,34.516,35.003,36.015
33.823,34.993,34.868,34.514,35.004,35.99
33.81,34.976,34.832,34.513000000000005,35.004,35.967
33.797,34.958,34.796,34.513000000000005,35.001999999999995,35.945
33.783,34.937,34.76,34.510999999999996,34.998000000000005,35.924
33.77,34.914,34.724000000000004,34.508,34.991,35.903
33.759,34.89,34.691,34.501999999999995,34.982,35.883
33.751,34.864000000000004,34.661,34.494,34.969,35.861999999999995
33.749,34.836999999999996,34.635,34.483000000000004,34.952,35.84
33.753,34.808,34.614000000000004,34.47,34.931,35.816
33.768,34.779,34.598,34.455,34.908,35.789
33.793,34.75,34.588,34.439,34.883,35.76
33.830999999999996,34.72,34.580999999999996,34.423,34.859,35.727
33.884,34.691,34.577,34.406,34.836999999999996,35.693000000000005
33.953,34.663000000000004,34.577,34.39,34.817,35.658
34.039,34.635999999999996,34.578,34.375,34.801,35.622
34.141999999999996,34.611,34.579,34.361,34.789,35.586
34.260999999999996,34.586,34.580999999999996,34.349000000000004,34.781,35.55
34.395,34.562,34.580999999999996,34.339,34.775,35.510999999999996
34.544000000000004,34.54,34.58,34.330999999999996,34.77,35.47
34.703,34.519,34.577,34.325,34.765,35.427
34.872,34.498000000000005,34.573,34.321,34.76,35.383
35.046,34.479,34.566,34.316,34.755,35.339
35.224000000000004,34.46,34.558,34.312,34.749,35.295
35.400999999999996,34.441,34.546,34.306999999999995,34.744,35.253
35.573,34.423,34.532,34.3,34.74,35.213
35.739000000000004,34.405,34.515,34.291,34.74,35.178000000000004
35.894,34.388000000000005,34.496,34.281,34.743,35.15
36.037,34.373000000000005,34.475,34.268,34.751,35.129
36.164,34.358000000000004,34.455,34.253,34.764,35.117
36.274,34.345,34.434,34.236,34.785,35.111
36.365,34.334,34.416,34.218,34.814,35.11
36.438,34.324,34.4,34.198,34.852,35.114000000000004
36.492,34.317,34.385999999999996,34.179,34.899,35.12
36.527,34.313,34.374,34.161,34.958,35.126
36.545,34.311,34.365,34.144,35.027,35.132
36.546,34.312,34.358000000000004,34.13,35.107,35.137
36.532,34.315,34.353,34.12,35.196,35.141
36.506,34.32,34.351,34.113,35.292,35.143
36.467,34.326,34.351,34.11,35.395,35.141999999999996
36.419000000000004,34.333,34.353,34.111999999999995,35.501,35.139
36.363,34.34,34.358000000000004,34.119,35.61,35.133
36.301,34.346,34.365,34.131,35.719,35.124
36.234,34.352,34.373000000000005,34.15,35.828,35.111999999999995
36.164,34.355,34.383,34.175,35.934,35.098
36.093,34.358000000000004,34.391999999999996,34.207,36.036,35.08
36.021,34.359,34.400999999999996,34.246,36.133,35.061
35.951,34.36,34.408,34.291,36.223,35.038000000000004
35.882,34.36,34.414,34.342,36.305,35.013000000000005
35.816,34.36,34.416,34.4,36.376,34.986
35.753,34.359,34.415,34.463,36.437,34.957
35.692,34.359,34.409,34.532,36.485,34.927
35.634,34.358000000000004,34.399,34.606,36.522,34.898
35.58,34.357,34.384,34.685,36.548,34.869
35.529,34.355,34.364000000000004,34.768,36.564,34.84
35.48,34.351,34.34,34.854,36.571,34.812
35.435,34.347,34.314,34.942,36.571999999999996,34.785
35.391,34.342,34.287,35.029,36.565,34.76
35.351,34.336999999999996,34.26,35.114000000000004,36.552,34.736999999999995
35.312,34.332,34.234,35.195,36.533,34.717
35.275999999999996,34.328,34.21,35.271,36.507,34.7
35.241,34.325,34.188,35.341,36.474000000000004,34.685
35.207,34.324,34.17,35.404,36.434,34.672
35.173,34.326,34.156,35.46,36.389,34.662
35.139,34.33,34.147,35.509,36.341,34.653
35.105,34.34,34.144,35.55,36.29,34.646
35.071999999999996,34.355,34.148,35.584,36.24,34.639
35.039,34.376,34.16,35.61,36.19,34.634
35.007,34.405,34.18,35.626999999999995,36.141999999999996,34.63
34.976,34.442,34.208,35.635,36.097,34.629
34.946,34.489000000000004,34.244,35.635,36.055,34.631
34.917,34.545,34.288000000000004,35.626,36.016,34.637
34.889,34.611,34.339,35.61,35.98,34.647
34.863,34.687,34.398,35.586999999999996,35.946,34.664
34.839,34.771,34.465,35.558,35.914,34.687
34.818000000000005,34.861999999999995,34.54,35.525,35.884,34.718
34.801,34.955999999999996,34.622,35.488,35.856,34.76
34.787,35.052,34.71,35.451,35.83,34.813
34.778,35.146,34.803000000000004,35.412,35.805,34.88
34.775,35.236999999999995,34.899,35.375,35.782,34.96
34.775999999999996,35.321999999999996,34.997,35.34,35.760999999999996,35.053000000000004
34.783,35.400999999999996,35.096,35.308,35.74,35.159
34.794000000000004,35.473,35.194,35.28,35.721,35.277
34.81,35.536,35.29,35.258,35.702,35.406
34.83,35.591,35.383,35.241,35.685,35.543
34.852,35.638000000000005,35.472,35.229,35.668,35.687
34.876999999999995,35.675,35.555,35.221,35.652,35.836
34.904,35.705,35.631,35.218,35.637,35.988
34.931,35.727,35.699,35.219,35.623000000000005,36.141
34.959,35.742,35.759,35.221,35.61,36.293
34.986,35.753,35.811,35.225,35.598,36.443000000000005
35.010999999999996,35.76,35.856,35.228,35.586999999999996,36.588
35.034,35.764,35.891999999999996,35.23,35.579,36.726
35.054,35.766,35.921,35.228,35.574,36.856
35.07,35.766999999999996,35.942,35.223,35.571999999999996,36.974000000000004
35.083,35.766999999999996,35.957,35.211999999999996,35.574,37.080999999999996
35.091,35.766,35.965,35.198,35.58,37.175
35.096,35.763000000000005,35.967,35.179,35.59,37.255
35.098,35.759,35.963,35.156,35.603,37.321999999999996
35.096,35.751999999999995,35.952,35.132,35.618,37.375
35.091,35.743,35.936,35.106,35.633,37.416
35.082,35.732,35.914,35.082,35.649,37.445
35.069,35.719,35.887,35.059,35.663000000000004,37.463
35.054,35.705999999999996,35.854,35.04,35.676,37.471
35.035,35.693000000000005,35.818000000000005,35.025999999999996,35.689,37.468
35.013000000000005,35.681,35.777,35.016999999999996,35.702,37.455999999999996
34.99,35.671,35.733000000000004,35.014,35.716,37.436
34.965,35.662,35.686,35.016,35.73,37.408
34.939,35.655,35.638000000000005,35.022,35.745,37.374
34.913000000000004,35.649,35.588,35.031,35.760999999999996,37.334
34.887,35.644,35.539,35.042,35.775999999999996,37.289
34.861,35.637,35.489000000000004,35.055,35.788000000000004,37.24
34.836999999999996,35.629,35.441,35.068000000000005,35.797,37.189
34.813,35.62,35.395,35.083,35.802,37.137
34.79,35.609,35.351,35.098,35.803000000000004,37.083
34.769,35.595,35.31,35.111999999999995,35.799,37.03
34.748000000000005,35.579,35.271,35.125,35.791,36.976
34.729,35.561,35.236,35.135,35.78,36.923
34.711,35.542,35.205999999999996,35.144,35.766,36.871
34.696,35.52,35.18,35.149,35.749,36.821
34.681999999999995,35.496,35.158,35.150999999999996,35.729,36.773
34.669000000000004,35.47,35.141,35.15,35.705999999999996,36.728
34.656,35.443000000000005,35.128,35.146,35.681999999999995,36.686
34.643,35.417,35.119,35.14,35.656,36.647
34.628,35.39,35.111999999999995,35.131,35.629,36.61
34.611999999999995,35.36,35.109,35.121,35.602,36.576
34.593,35.325,35.107,35.111,35.576,36.542
34.571,35.287,35.108000000000004,35.102,35.55,36.510999999999996
34.545,35.251999999999995,35.111,35.093,35.525,36.483000000000004
34.516999999999996,35.22,35.115,35.086,35.499,36.455999999999996
34.486,35.192,35.119,35.079,35.474000000000004,36.433
34.454,35.17,35.123000000000005,35.074,35.449,36.411
34.421,35.156,35.126999999999995,35.069,35.424,36.391999999999996
34.388000000000005,35.152,35.13,35.064,35.398,36.376999999999995
34.355,35.156,35.132,35.059,35.372,36.364000000000004
34.323,35.168,35.133,35.052,35.347,36.355
34.291,35.186,35.134,35.044000000000004,35.321999999999996,36.349000000000004
34.26,35.207,35.135,35.034,35.298,36.345
34.231,35.231,35.135999999999996,35.022,35.275,36.342
34.203,35.255,35.137,35.007,35.253,36.343
34.176,35.277,35.139,34.989000000000004,35.231,36.346
34.150999999999996,35.298,35.141999999999996,34.968,35.208,36.351
34.126999999999995,35.315,35.147,34.945,35.184,36.357
34.105,35.328,35.155,34.92,35.159,36.365
34.085,35.336999999999996,35.164,34.894,35.133,36.372
34.068000000000005,35.343,35.176,34.868,35.106,36.379
34.055,35.346,35.19,34.843,35.08,36.385
34.044000000000004,35.347,35.205999999999996,34.82,35.055,36.391
34.037,35.345,35.224000000000004,34.799,35.033,36.397
34.031,35.342,35.243,34.779,35.013000000000005,36.402
34.029,35.336999999999996,35.263000000000005,34.763000000000005,34.997,36.405
34.03,35.330999999999996,35.287,34.748000000000005,34.983000000000004,36.406
34.033,35.325,35.318000000000005,34.736,34.972,36.405
34.035,35.317,35.356,34.726,34.961999999999996,36.402
34.034,35.309,35.398,34.716,34.95,36.396
34.025999999999996,35.301,35.441,34.705999999999996,34.937,36.388000000000005
34.014,35.292,35.48,34.694,34.922,36.376999999999995
33.997,35.283,35.514,34.68,34.904,36.364000000000004
33.972,35.274,35.539,34.664,34.885,36.35
33.94,35.264,35.552,34.645,34.866,36.334
33.906,35.254,35.552,34.624,34.846,36.319
33.873000000000005,35.244,35.539,34.601,34.828,36.303000000000004
33.845,35.233000000000004,35.513000000000005,34.577,34.812,36.287
33.821999999999996,35.221,35.475,34.554,34.798,36.271
33.806,35.209,35.427,34.531,34.786,36.254
33.798,35.196,35.37,34.509,34.775999999999996,36.236999999999995
33.798,35.181,35.306999999999995,34.489000000000004,34.768,36.22
33.806,35.165,35.24,34.472,34.759,36.201
33.821999999999996,35.147,35.171,34.457,34.749,36.181999999999995
33.847,35.128,35.103,34.445,34.739000000000004,36.163000000000004
33.881,35.107,35.038000000000004,34.435,34.729,36.143
33.924,35.084,34.978,34.428000000000004,34.72,36.122
33.976,35.059,34.925,34.421,34.711,36.1
34.04,35.032,34.879,34.416,34.705999999999996,36.077
34.115,35.003,34.841,34.412,34.705,36.053000000000004
34.202,34.973,34.812,34.408,34.708,36.028
34.301,34.942,34.792,34.404,34.718,36.001
34.413000000000004,34.91,34.779,34.400999999999996,34.735,35.973
34.538000000000004,34.878,34.772,34.398,34.759,35.942
34.673,34.846,34.771,34.394,34.792,35.909
34.819,34.816,34.774,34.39,34.834,35.873000000000005
34.972,34.788000000000004,34.778,34.385,34.885999999999996,35.834
35.13,34.762,34.783,34.378,34.946,35.793
35.293,34.739000000000004,34.787,34.37,35.015,35.749
35.455999999999996,34.717,34.788000000000004,34.361,35.093,35.702
35.617,34.696999999999996,34.787,34.349000000000004,35.18,35.652
35.775,34.679,34.781,34.335,35.273,35.601
35.925,34.662,34.77,34.32,35.373000000000005,35.548
36.065,34.647,34.755,34.304,35.478,35.494
36.193000000000005,34.633,34.736,34.287,35.586999999999996,35.44
36.306999999999995,34.62,34.714,34.271,35.698,35.385999999999996
36.407,34.608000000000004,34.689,34.254,35.81,35.333
36.49,34.596,34.662,34.24,35.922,35.281
36.556999999999995,34.585,34.634,34.227,36.03,35.233000000000004
36.606,34.573,34.605,34.218,36.135,35.187
36.638000000000005,34.561,34.576,34.213,36.232,35.146
36.655,34.549,34.549,34.213,36.32,35.107
36.657,34.537,34.523,34.218,36.397,35.071999999999996
36.646,34.525,34.501,34.228,36.463,35.041
36.622,34.514,34.482,34.244,36.518,35.014
36.586999999999996,34.503,34.466,34.265,36.561,34.989000000000004
36.543,34.493,34.455,34.291,36.594,34.968
36.491,34.483000000000004,34.446,34.321,36.617,34.95
36.433,34.475,34.442,34.356,36.63,34.935
36.37,34.467,34.44,34.395,36.635,34.922
36.304,34.46,34.44,34.439,36.632,34.912
36.236,34.454,34.443000000000005,34.488,36.622,34.903
36.167,34.449,34.448,34.542,36.606,34.895
36.097,34.444,34.455,34.599000000000004,36.583,34.887
36.029,34.441,34.461,34.661,36.554,34.876999999999995
35.963,34.439,34.467,34.728,36.519,34.867
35.899,34.436,34.471,34.799,36.481,34.855
35.84,34.434,34.473,34.874,36.439,34.843
35.784,34.431999999999995,34.472,34.952,36.396,34.829
35.733000000000004,34.43,34.467,35.033,36.352,34.815
35.686,34.429,34.458,35.116,36.308,34.8
35.643,34.429,34.445,35.201,36.266,34.784
35.603,34.429,34.429,35.285,36.226,34.766
35.566,34.429,34.409,35.366,36.188,34.748000000000005
35.531,34.431,34.387,35.444,36.154,34.728
35.496,34.435,34.363,35.516,36.121,34.708
35.461999999999996,34.441,34.338,35.58,36.09,34.687
35.426,34.451,34.313,35.634,36.06,34.665
35.39,34.465,34.289,35.678000000000004,36.029,34.643
35.352,34.484,34.268,35.711,35.999,34.62
35.314,34.508,34.25,35.733000000000004,35.969,34.597
35.274,34.538000000000004,34.236999999999995,35.744,35.939,34.574
35.234,34.574,34.231,35.745,35.91,34.552
35.194,34.617,34.233000000000004,35.738,35.881,34.532
35.154,34.667,34.244,35.724000000000004,35.855,34.514
35.115,34.725,34.264,35.704,35.83,34.497
35.077,34.789,34.294000000000004,35.68,35.809,34.484
35.041,34.86,34.334,35.654,35.789,34.472
35.008,34.936,34.385,35.626999999999995,35.773,34.461999999999996
34.978,35.016999999999996,34.446999999999996,35.599000000000004,35.757,34.454
34.952,35.101,34.52,35.571999999999996,35.743,34.448
34.93,35.186,34.602,35.546,35.73,34.443000000000005
34.913000000000004,35.272,34.692,35.521,35.718,34.439
34.902,35.358000000000004,34.79,35.499,35.705999999999996,34.434
34.897,35.441,34.891999999999996,35.48,35.696,34.43
34.898,35.521,34.998000000000005,35.465,35.687,34.427
34.904,35.597,35.105,35.453,35.681,34.422
34.916,35.666,35.211,35.444,35.679,34.417
34.931999999999995,35.727,35.314,35.438,35.68,34.41
34.953,35.78,35.414,35.434,35.685,34.400999999999996
34.977,35.825,35.507,35.43,35.694,34.389
35.005,35.861999999999995,35.594,35.426,35.707,34.374
35.034,35.889,35.671,35.421,35.722,34.357
35.065,35.908,35.736999999999995,35.412,35.739000000000004,34.335
35.096,35.919000000000004,35.793,35.4,35.757,34.311
35.126999999999995,35.924,35.839,35.383,35.775,34.284
35.157,35.922,35.876,35.363,35.791,34.254
35.184,35.916,35.905,35.34,35.806,34.223
35.209,35.906,35.927,35.314,35.819,34.19
35.23,35.893,35.941,35.288000000000004,35.830999999999996,34.157
35.248000000000005,35.878,35.949,35.262,35.84,34.126
35.260999999999996,35.863,35.952,35.238,35.846,34.095
35.271,35.847,35.951,35.216,35.85,34.069
35.277,35.830999999999996,35.946,35.199,35.852,34.047
35.279,35.816,35.937,35.186,35.851,34.032
35.275999999999996,35.802,35.926,35.179,35.847,34.025
35.269,35.789,35.912,35.176,35.841,34.029
35.257,35.777,35.896,35.178000000000004,35.832,34.045
35.241,35.766999999999996,35.878,35.184,35.821999999999996,34.074
35.222,35.758,35.858000000000004,35.193000000000005,35.809,34.119
35.199,35.75,35.835,35.204,35.796,34.179
35.174,35.743,35.811,35.216,35.78,34.257
35.147,35.738,35.785,35.229,35.764,34.352
35.119,35.734,35.757,35.242,35.748000000000005,34.466
35.091,35.73,35.728,35.253,35.731,34.597
35.063,35.726,35.696999999999996,35.260999999999996,35.715,34.742
35.037,35.721,35.664,35.266999999999996,35.696999999999996,34.900999999999996
35.012,35.715,35.63,35.269,35.679,35.071
34.988,35.708,35.595,35.268,35.66,35.251
34.967,35.699,35.559,35.265,35.64,35.436
34.946999999999996,35.69,35.522,35.259,35.618,35.624
34.929,35.679,35.484,35.251999999999995,35.595,35.813
34.914,35.667,35.445,35.245,35.571,35.998000000000005
34.9,35.654,35.407,35.236999999999995,35.546,36.177
34.888000000000005,35.639,35.37,35.23,35.521,36.347
34.876999999999995,35.623000000000005,35.334,35.224000000000004,35.495,36.507
34.867,35.606,35.299,35.218,35.468,36.654
34.857,35.589,35.266999999999996,35.214,35.441,36.786
34.845,35.571,35.238,35.21,35.414,36.902
34.834,35.552,35.211999999999996,35.207,35.388000000000005,37.003
34.82,35.533,35.191,35.205,35.364000000000004,37.086
34.805,35.515,35.174,35.202,35.341,37.153
34.787,35.497,35.162,35.2,35.319,37.204
34.766,35.481,35.154,35.199,35.299,37.24
34.743,35.465,35.150999999999996,35.199,35.28,37.263000000000005
34.717,35.45,35.150999999999996,35.2,35.260999999999996,37.273
34.689,35.436,35.155,35.201,35.243,37.272
34.659,35.424,35.161,35.201,35.225,37.26
34.626,35.413000000000004,35.169000000000004,35.2,35.205999999999996,37.24
34.592,35.403,35.179,35.196,35.188,37.213
34.556999999999995,35.394,35.189,35.188,35.168,37.18
34.522,35.385,35.2,35.175,35.149,37.141999999999996
34.486999999999995,35.376,35.211,35.159,35.13,37.102
34.453,35.367,35.222,35.137,35.111999999999995,37.06
34.42,35.359,35.231,35.113,35.095,37.016999999999996
34.389,35.35,35.239000000000004,35.086,35.079,36.973
34.36,35.34,35.246,35.056999999999995,35.063,36.929
34.335,35.33,35.253,35.028,35.048,36.888000000000005
34.313,35.32,35.259,34.999,35.033,36.849000000000004
34.295,35.309,35.264,34.971,35.018,36.813
34.281,35.299,35.269,34.945,35.001,36.78
34.271,35.29,35.275,34.921,34.985,36.749
34.263000000000005,35.282,35.28,34.899,34.969,36.72
34.258,35.274,35.287,34.881,34.954,36.695
34.256,35.266999999999996,35.293,34.864000000000004,34.941,36.671
34.255,35.260999999999996,35.301,34.85,34.929,36.65
34.257,35.256,35.309,34.836999999999996,34.919000000000004,36.629
34.26,35.251999999999995,35.318000000000005,34.826,34.91,36.609
34.264,35.248000000000005,35.326,34.814,34.903,36.586
34.268,35.244,35.334,34.803000000000004,34.894,36.563
34.272,35.24,35.339,34.79,34.885,36.536
34.275,35.236,35.341,34.775,34.873000000000005,36.508
34.275999999999996,35.231,35.336,34.758,34.859,36.477
34.275999999999996,35.224000000000004,35.323,34.739000000000004,34.843,36.444
34.272,35.217,35.301,34.718,34.828,36.41
34.266,35.209,35.272,34.696,34.813,36.373000000000005
34.257,35.2,35.236,34.674,34.801,36.336999999999996
34.245,35.188,35.196,34.652,34.794000000000004,36.3
34.231,35.176,35.155,34.632,34.793,36.265
34.217,35.163000000000004,35.113,34.611999999999995,34.799,36.232
34.201,35.149,35.071,34.595,34.813,36.202
34.186,35.134,35.032,34.578,34.833,36.175
34.173,35.118,34.996,34.563,34.861999999999995,36.152
34.164,35.102,34.965,34.549,34.898,36.133
34.16,35.084,34.941,34.536,34.943000000000005,36.119
34.164,35.067,34.921,34.525,34.997,36.11
34.178000000000004,35.049,34.907,34.514,35.06,36.107
34.204,35.032,34.898,34.503,35.133,36.107
34.244,35.014,34.891999999999996,34.492,35.215,36.111
34.3,34.996,34.89,34.481,35.305,36.118
34.374,34.977,34.89,34.469,35.403,36.126999999999995
34.466,34.958,34.891999999999996,34.455999999999996,35.508,36.139
34.576,34.937,34.895,34.444,35.618,36.154
34.702,34.916,34.899,34.431,35.731,36.171
34.844,34.893,34.902,34.42,35.847,36.19
34.999,34.869,34.905,34.41,35.961,36.211999999999996
35.164,34.844,34.906,34.400999999999996,36.073,36.234
35.336999999999996,34.817,34.905,34.391999999999996,36.18,36.258
35.514,34.79,34.902,34.384,36.28,36.281
35.693000000000005,34.762,34.897,34.376,36.372,36.303000000000004
35.869,34.734,34.891,34.368,36.453,36.324
36.04,34.707,34.881,34.359,36.523,36.34
36.201,34.679,34.868,34.349000000000004,36.580999999999996,36.353
36.351,34.652,34.853,34.339,36.626999999999995,36.361
36.486,34.626,34.835,34.33,36.661,36.364000000000004
36.605,34.601,34.814,34.321,36.686,36.361
36.707,34.577,34.79,34.314,36.702,36.353
36.79,34.554,34.764,34.311,36.71,36.341
36.855,34.533,34.735,34.312,36.71,36.325
36.900999999999996,34.512,34.705,34.317,36.704,36.305
36.929,34.493,34.674,34.328,36.69,36.28
36.94,34.476,34.641999999999996,34.346,36.671,36.249
36.934,34.46,34.61,34.369,36.646,36.215
36.915,34.446,34.578,34.399,36.615,36.176
36.883,34.431,34.548,34.435,36.58,36.134
36.839,34.418,34.519,34.478,36.542,36.091
36.785,34.405,34.494,34.525,36.501,36.045
36.724000000000004,34.391999999999996,34.472,34.579,36.46,36.0
36.657,34.38,34.453,34.638000000000005,36.418,35.953
36.586999999999996,34.369,34.438,34.702,36.373000000000005,35.908
36.515,34.359,34.428000000000004,34.771,36.328,35.865
36.442,34.349000000000004,34.422,34.846,36.281,35.823
36.371,34.34,34.421,34.925,36.236,35.784
36.302,34.330999999999996,34.422,35.009,36.192,35.746
36.235,34.321999999999996,34.425,35.097,36.152,35.711
36.172,34.313,34.43,35.188,36.114000000000004,35.678000000000004
36.111999999999995,34.304,34.434,35.279,36.079,35.648
36.055,34.295,34.438,35.371,36.047,35.621
36.001999999999995,34.285,34.441,35.461,36.016,35.596
35.951,34.275,34.442,35.547,35.986,35.573
35.903,34.265,34.441,35.628,35.957,35.549
35.857,34.254,34.439,35.701,35.929,35.527
35.811,34.244,34.436,35.766,35.902,35.504
35.765,34.233000000000004,34.431999999999995,35.82,35.876999999999995,35.483000000000004
35.719,34.223,34.426,35.863,35.854,35.461
35.671,34.213,34.419000000000004,35.893,35.835,35.438
35.622,34.203,34.413000000000004,35.911,35.82,35.414
35.571,34.193000000000005,34.41,35.917,35.806999999999995,35.388000000000005
35.518,34.185,34.411,35.912,35.797,35.361
35.464,34.179,34.419000000000004,35.899,35.788000000000004,35.332
35.41,34.175,34.436,35.876999999999995,35.779,35.302
35.356,34.176,34.463,35.85,35.769,35.271
35.303000000000004,34.181,34.501,35.819,35.758,35.238
35.253,34.193000000000005,34.552,35.785,35.748000000000005,35.204
35.205999999999996,34.211999999999996,34.614000000000004,35.75,35.74,35.168
35.162,34.238,34.689,35.715,35.734,35.13
35.121,34.273,34.775,35.679,35.732,35.092
35.085,34.314,34.872,35.645,35.734,35.055
35.054,34.364000000000004,34.978,35.611999999999995,35.74,35.019
35.028,34.421,35.089,35.580999999999996,35.75,34.984
35.009,34.484,35.205,35.553000000000004,35.763000000000005,34.95
34.996,34.554,35.321999999999996,35.528,35.778,34.919000000000004
34.99,34.63,35.439,35.506,35.793,34.89
34.991,34.711,35.554,35.486999999999995,35.809,34.865
34.999,34.794000000000004,35.666,35.472,35.823,34.845
35.013000000000005,34.88,35.773,35.459,35.836,34.828
35.032,34.967,35.872,35.446999999999996,35.848,34.816
35.056999999999995,35.052,35.96,35.437,35.859,34.806999999999995
35.086999999999996,35.135999999999996,36.038000000000004,35.425,35.868,34.8
35.12,35.217,36.103,35.412,35.876,34.796
35.158,35.293,36.155,35.397,35.882,34.795
35.198,35.361999999999995,36.193000000000005,35.379,35.887,34.796
35.24,35.425,36.217,35.357,35.891,34.798
35.282,35.48,36.227,35.332,35.893,34.8
35.323,35.525999999999996,36.225,35.304,35.894,34.803000000000004
35.363,35.563,36.211999999999996,35.274,35.891999999999996,34.805
35.400999999999996,35.592,36.189,35.243,35.889,34.806999999999995
35.435,35.611999999999995,36.157,35.211999999999996,35.883,34.808
35.465,35.625,36.118,35.181999999999995,35.874,34.808
35.49,35.63,36.073,35.154,35.861999999999995,34.806
35.51,35.629,36.025,35.129,35.848,34.802
35.525,35.622,35.976,35.108000000000004,35.83,34.795
35.534,35.61,35.926,35.091,35.811,34.784
35.537,35.595,35.879,35.079,35.79,34.771
35.535,35.576,35.835,35.071999999999996,35.768,34.756
35.529,35.555,35.795,35.068000000000005,35.747,34.739000000000004
35.516999999999996,35.534,35.759,35.069,35.725,34.719
35.503,35.512,35.727,35.074,35.702,34.696
35.485,35.491,35.699,35.082,35.679,34.671
35.466,35.47,35.674,35.092,35.655,34.645
35.445,35.451,35.653,35.104,35.629,34.618
35.424,35.434,35.635,35.117,35.602,34.592
35.402,35.419000000000004,35.618,35.129,35.573,34.567
35.38,35.406,35.602,35.141,35.545,34.542
35.36,35.395,35.585,35.150999999999996,35.516999999999996,34.519
35.341,35.385999999999996,35.568000000000005,35.16,35.489000000000004,34.497
35.323,35.379,35.549,35.168,35.464,34.476
35.306,35.373000000000005,35.528,35.174,35.44,34.457
35.29,35.368,35.503,35.178000000000004,35.418,34.439
35.274,35.364000000000004,35.475,35.181,35.397,34.422
35.258,35.36,35.445,35.184,35.376,34.408
35.242,35.355,35.413000000000004,35.186,35.356,34.394
35.226,35.35,35.382,35.187,35.335,34.383
35.21,35.343,35.351,35.188,35.314,34.374
35.193000000000005,35.334,35.321,35.188,35.293,34.368
35.175,35.323,35.292,35.187,35.271,34.364000000000004
35.155,35.309,35.264,35.185,35.25,34.364000000000004
35.133,35.293,35.239000000000004,35.183,35.23,34.367
35.109,35.275,35.219,35.18,35.21,34.375
35.080999999999996,35.256,35.203,35.177,35.189,34.39
35.052,35.236,35.193000000000005,35.171,35.169000000000004,34.413000000000004
35.019,35.216,35.19,35.165,35.149,34.446999999999996
34.985,35.196,35.194,35.157,35.129,34.491
34.948,35.176,35.204,35.147,35.11,34.546
34.909,35.156,35.219,35.135999999999996,35.09,34.614000000000004
34.87,35.135999999999996,35.239000000000004,35.123000000000005,35.07,34.696
34.830999999999996,35.117,35.263000000000005,35.107,35.051,34.799
34.791,35.099000000000004,35.29,35.088,35.032,34.927
34.751999999999995,35.083,35.321,35.065,35.015,35.079
34.713,35.067,35.353,35.039,34.998000000000005,35.249
34.676,35.052,35.385,35.01,34.983000000000004,35.43
34.64,35.038000000000004,35.417,34.98,34.969,35.616
34.606,35.024,35.446999999999996,34.949,34.955999999999996,35.802
34.575,35.010999999999996,35.474000000000004,34.919000000000004,34.944,35.985
34.547,34.998000000000005,35.497,34.89,34.931999999999995,36.161
34.522,34.986,35.516999999999996,34.863,34.921,36.327
34.5,34.974000000000004,35.533,34.838,34.91,36.481
34.482,34.963,35.544000000000004,34.817,34.9,36.622
34.469,34.954,35.551,34.797,34.89,36.751
34.46,34.945,35.553000000000004,34.78,34.88,36.865
34.455,34.938,35.548,34.765,34.87,36.965
34.455,34.933,35.538000000000004,34.751,34.859,37.052
34.458,34.93,35.523,34.736999999999995,34.849000000000004,37.126
34.464,34.929,35.501999999999995,34.723,34.839,37.189
34.474000000000004,34.929,35.478,34.708,34.828,37.243
34.485,34.931,35.452,34.692,34.818000000000005,37.288000000000004
34.496,34.934,35.425,34.674,34.808,37.326
34.507,34.936,35.398,34.656,34.799,37.356
34.515,34.939,35.372,34.635,34.791,37.38
34.521,34.94,35.349000000000004,34.614000000000004,34.786,37.398
34.522,34.941,35.329,34.592,34.785,37.41
34.52,34.94,35.312,34.57,34.788000000000004,37.415
34.514,34.939,35.299,34.549,34.796,37.413000000000004
34.504,34.937,35.29,34.53,34.811,37.403
34.492,34.933,35.285,34.512,34.832,37.387
34.477,34.928000000000004,35.282,34.497,34.861,37.364000000000004
34.459,34.921,35.28,34.485,34.898,37.336
34.44,34.914,35.279,34.476,34.946,37.301
34.421,34.906,35.275999999999996,34.469,35.004,37.260999999999996
34.400999999999996,34.896,35.272,34.464,35.074,37.216
34.381,34.885,35.265,34.46,35.154,37.167
34.361999999999995,34.874,35.255,34.455999999999996,35.245,37.117
34.346,34.861,35.242,34.451,35.345,37.065
34.332,34.848,35.226,34.445,35.452,37.013000000000005
34.321999999999996,34.835,35.205999999999996,34.436,35.562,36.961999999999996
34.318000000000005,34.82,35.183,34.426,35.674,36.911
34.32,34.805,35.158,34.413000000000004,35.784,36.86
34.330999999999996,34.79,35.129,34.398,35.889,36.81
34.352,34.774,35.098,34.382,35.989000000000004,36.76
34.385999999999996,34.759,35.064,34.364000000000004,36.083,36.711999999999996
34.433,34.745,35.03,34.345,36.169000000000004,36.666
34.495,34.731,34.996,34.326,36.248000000000005,36.622
34.571999999999996,34.718,34.963,34.308,36.318000000000005,36.58
34.665,34.705999999999996,34.931,34.292,36.379,36.54
34.773,34.695,34.900999999999996,34.278,36.431,36.501999999999995
34.895,34.684,34.873000000000005,34.266,36.473,36.466
35.031,34.674,34.847,34.256,36.505,36.431999999999995
35.177,34.666,34.824,34.248000000000005,36.527,36.400999999999996
35.333,34.658,34.804,34.242,36.54,36.373000000000005
35.494,34.65,34.789,34.238,36.543,36.348
35.657,34.641999999999996,34.777,34.236,36.537,36.324
35.82,34.633,34.771,34.236999999999995,36.524,36.304
35.978,34.623000000000005,34.766999999999996,34.24,36.503,36.287
36.129,34.611999999999995,34.766,34.244,36.475,36.274
36.27,34.601,34.765,34.251999999999995,36.442,36.264
36.4,34.588,34.764,34.260999999999996,36.403,36.258
36.516999999999996,34.576,34.762,34.274,36.361,36.255
36.62,34.563,34.757,34.289,36.316,36.254
36.707,34.549,34.751,34.306,36.271,36.256
36.779,34.534,34.743,34.327,36.227,36.262
36.835,34.519,34.732,34.35,36.184,36.27
36.876,34.503,34.719,34.376,36.144,36.281
36.900999999999996,34.486999999999995,34.704,34.407,36.106,36.294000000000004
36.912,34.471,34.686,34.444,36.069,36.306999999999995
36.909,34.455,34.666,34.486,36.034,36.32
36.894,34.438,34.644,34.536,35.998000000000005,36.332
36.868,34.422,34.621,34.593,35.963,36.344
36.834,34.405,34.598,34.659,35.927,36.354
36.793,34.387,34.576,34.732,35.891,36.361999999999995
36.747,34.369,34.555,34.812,35.856,36.367
36.696,34.351,34.537,34.898,35.823,36.368
36.643,34.333,34.52,34.988,35.792,36.366
36.589,34.315,34.508,35.082,35.763000000000005,36.361
36.534,34.297,34.5,35.177,35.736999999999995,36.353
36.48,34.278,34.497,35.273,35.715,36.343
36.428000000000004,34.26,34.501,35.366,35.694,36.330999999999996
36.376999999999995,34.241,34.512,35.455999999999996,35.676,36.318000000000005
36.329,34.223,34.531,35.54,35.66,36.301
36.282,34.205999999999996,34.559,35.616,35.645,36.283
36.236,34.191,34.595,35.683,35.63,36.262
36.19,34.178000000000004,34.64,35.739000000000004,35.616,36.24
36.144,34.166,34.692,35.783,35.602,36.217
36.097,34.156,34.754,35.815,35.588,36.194
36.048,34.148,34.824,35.833,35.576,36.172
35.997,34.143,34.902,35.839,35.566,36.149
35.944,34.139,34.988,35.832,35.559,36.126
35.89,34.137,35.082,35.814,35.555,36.101
35.833,34.135999999999996,35.181999999999995,35.787,35.554,36.075
35.775999999999996,34.138000000000005,35.286,35.753,35.556999999999995,36.049
35.719,34.141,35.393,35.714,35.564,36.021
35.662,34.146,35.501,35.671,35.574,35.993
35.607,34.154,35.608000000000004,35.626,35.586,35.963
35.554,34.164,35.713,35.58,35.599000000000004,35.931
35.503,34.176,35.813,35.532,35.611999999999995,35.9
35.455999999999996,34.191,35.908,35.484,35.623000000000005,35.867
35.412,34.21,35.996,35.437,35.633,35.835
35.372,34.233000000000004,36.076,35.393,35.641999999999996,35.803000000000004
35.336,34.262,36.148,35.352,35.65,35.769
35.305,34.296,36.211,35.314,35.658,35.734
35.277,34.336,36.264,35.282,35.666,35.696999999999996
35.253,34.383,36.306999999999995,35.253,35.675,35.659
35.235,34.437,36.342,35.228,35.685,35.619
35.221,34.499,36.369,35.208,35.695,35.577
35.211,34.568000000000005,36.387,35.192,35.704,35.534
35.207,34.644,36.398,35.178000000000004,35.711,35.489000000000004
35.207,34.726,36.402,35.166,35.715,35.443000000000005
35.211,34.812,36.399,35.155,35.716,35.394
35.219,34.902,36.39,35.144,35.711999999999996,35.344
35.231,34.993,36.374,35.132,35.705,35.293
35.246,35.084,36.353,35.119,35.695,35.243
35.265,35.174,36.327,35.104,35.681999999999995,35.192
35.286,35.26,36.299,35.088,35.668,35.141999999999996
35.309,35.341,36.266999999999996,35.069,35.652,35.092
35.332,35.416,36.233000000000004,35.051,35.635,35.043
35.355,35.484,36.196999999999996,35.033,35.616,34.996
35.376,35.544000000000004,36.158,35.016,35.596,34.952
35.396,35.595,36.117,35.003,35.575,34.913000000000004
35.414,35.635999999999996,36.074,34.992,35.551,34.878
35.43,35.669000000000004,36.03,34.986,35.525999999999996,34.848
35.441,35.693000000000005,35.985,34.983000000000004,35.501,34.823
35.45,35.708,35.94,34.984,35.476,34.803000000000004
35.454,35.716,35.895,34.986999999999995,35.451,34.786
35.454,35.716,35.851,34.991,35.427,34.773
35.452,35.711,35.806999999999995,34.997,35.404,34.763000000000005
35.446,35.699,35.764,35.004,35.382,34.755
35.437,35.683,35.723,35.01,35.361,34.749
35.428000000000004,35.663000000000004,35.685,35.016,35.341,34.744
35.418,35.64,35.649,35.02,35.321999999999996,34.739000000000004
35.409,35.615,35.618,35.024,35.302,34.734
35.4,35.586999999999996,35.59,35.025999999999996,35.282,34.729
35.393,35.559,35.566,35.027,35.262,34.723
35.385999999999996,35.529,35.545,35.029,35.24,34.715
35.38,35.499,35.527,35.031,35.218,34.704
35.374,35.468,35.510999999999996,35.035,35.195,34.691
35.369,35.437,35.499,35.039,35.17,34.676
35.364000000000004,35.408,35.489000000000004,35.045,35.145,34.659
35.359,35.38,35.483000000000004,35.052,35.119,34.64
35.353,35.354,35.48,35.06,35.092,34.62
35.346,35.33,35.479,35.069,35.066,34.597
35.336,35.309,35.48,35.077,35.04,34.573
35.325,35.291,35.483000000000004,35.086,35.015,34.547
35.311,35.275,35.486,35.095,34.991,34.52
35.294000000000004,35.262,35.491,35.103,34.968,34.494
35.274,35.251,35.496,35.11,34.946,34.469
35.25,35.242,35.501,35.116,34.924,34.444
35.224000000000004,35.234,35.506,35.12,34.903,34.419000000000004
35.194,35.226,35.510999999999996,35.123000000000005,34.882,34.395
35.161,35.217,35.516,35.123000000000005,34.861999999999995,34.371
35.125,35.208,35.522,35.12,34.842,34.349000000000004
35.088,35.199,35.527,35.114000000000004,34.821999999999996,34.33
35.049,35.188,35.532,35.107,34.804,34.312
35.009,35.178000000000004,35.537,35.097,34.788000000000004,34.297
34.969,35.167,35.542,35.085,34.773,34.283
34.929,35.156,35.547,35.07,34.760999999999996,34.271
34.891,35.145,35.552,35.052,34.75,34.260999999999996
34.853,35.135999999999996,35.556999999999995,35.032,34.74,34.251999999999995
34.818000000000005,35.126999999999995,35.562,35.009,34.732,34.243
34.785,35.119,35.568000000000005,34.983000000000004,34.725,34.234
34.755,35.113,35.573,34.955,34.717,34.223
34.727,35.108000000000004,35.578,34.927,34.71,34.211999999999996
34.702,35.106,35.583,34.899,34.703,34.198
34.679,35.106,35.588,34.872,34.695,34.184
34.66,35.106,35.594,34.847,34.687,34.169000000000004
34.644,35.107,35.599000000000004,34.826,34.677,34.153
34.631,35.107,35.605,34.809,34.666,34.135
34.621,35.106,35.61,34.796,34.654,34.116
34.614000000000004,35.103,35.614000000000004,34.784,34.641,34.095
34.611,35.098,35.615,34.774,34.628,34.071999999999996
34.611999999999995,35.092,35.615,34.763000000000005,34.615,34.049
34.616,35.084,35.611999999999995,34.751999999999995,34.605,34.027
34.622,35.076,35.607,34.738,34.597,34.004
34.631,35.067,35.598,34.722,34.593,33.982
34.641,35.056999999999995,35.586,34.703,34.594,33.96
34.654,35.047,35.57,34.681999999999995,34.6,33.941
34.667,35.038000000000004,35.549,34.658,34.611999999999995,33.924
34.681999999999995,35.028,35.523,34.634,34.632,33.913000000000004
34.695,35.018,35.493,34.609,34.661,33.909
34.708,35.008,35.459,34.585,34.7,33.913000000000004
34.719,34.998000000000005,35.421,34.564,34.749,33.928000000000004
34.726,34.986999999999995,35.383,34.545,34.809,33.955
34.731,34.976,35.343,34.53,34.88,33.996
34.731,34.965,35.305,34.518,34.961,34.055
34.728,34.953,35.269,34.509,35.05,34.131
34.72,34.941,35.236,34.503,35.145,34.225
34.709,34.929,35.205,34.5,35.245,34.336999999999996
34.693000000000005,34.917,35.177,34.497,35.347,34.466
34.673,34.905,35.152,34.495,35.45,34.611999999999995
34.649,34.891999999999996,35.132,34.492,35.552,34.772
34.622,34.879,35.115,34.485,35.650999999999996,34.945
34.593,34.864000000000004,35.101,34.475,35.748000000000005,35.129
34.564,34.848,35.092,34.461999999999996,35.839,35.32
34.535,34.832,35.086,34.446999999999996,35.926,35.515
34.507,34.816,35.080999999999996,34.43,36.006,35.711999999999996
34.483000000000004,34.8,35.077,34.413000000000004,36.078,35.906
34.461999999999996,34.783,35.071999999999996,34.395,36.141,36.096
34.446999999999996,34.766999999999996,35.065,34.379,36.195,36.278
34.439,34.75,35.056,34.363,36.238,36.45
34.439,34.734,35.045,34.348,36.271,36.608000000000004
34.448,34.718,35.031,34.335,36.292,36.751
34.468,34.703,35.014,34.323,36.304,36.876
34.5,34.689,34.994,34.313,36.305,36.983000000000004
34.545,34.675,34.97,34.305,36.297,37.071999999999996
34.605,34.662,34.942,34.298,36.282,37.143
34.679,34.648,34.912,34.294000000000004,36.26,37.196999999999996
34.768,34.635,34.879,34.292,36.233000000000004,37.234
34.871,34.622,34.846,34.293,36.202,37.255
34.988,34.609,34.815,34.296,36.169000000000004,37.26
35.117,34.597,34.785,34.302,36.134,37.253
35.255,34.585,34.759,34.31,36.099000000000004,37.233000000000004
35.400999999999996,34.574,34.736999999999995,34.32,36.065,37.204
35.551,34.564,34.718,34.332,36.032,37.166
35.703,34.555,34.703,34.345,36.0,37.121
35.853,34.549,34.691,34.361,35.969,37.071
35.999,34.544000000000004,34.681999999999995,34.38,35.937,37.016999999999996
36.139,34.54,34.677,34.402,35.906,36.959
36.27,34.539,34.675,34.429,35.874,36.899
36.39,34.539,34.677,34.46,35.842,36.838
36.496,34.54,34.681999999999995,34.495,35.81,36.775999999999996
36.589,34.543,34.689,34.536,35.779,36.716
36.667,34.545,34.696999999999996,34.582,35.75,36.657
36.73,34.545,34.707,34.634,35.722,36.6
36.778,34.544000000000004,34.718,34.692,35.696999999999996,36.546
36.811,34.541,34.73,34.756,35.675,36.495
36.830999999999996,34.537,34.743,34.825,35.654,36.446
36.838,34.53,34.76,34.9,35.634,36.402
36.835,34.522,34.781,34.98,35.615,36.361
36.821,34.513000000000005,34.808,35.065,35.595,36.323
36.798,34.503,34.841,35.156,35.576,36.289
36.769,34.493,34.881,35.249,35.556,36.256
36.735,34.482,34.93,35.344,35.537,36.224000000000004
36.696999999999996,34.47,34.988,35.437,35.518,36.194
36.656,34.458,35.055,35.525999999999996,35.5,36.166
36.613,34.446,35.13,35.608000000000004,35.484,36.139
36.569,34.433,35.216,35.681,35.471,36.113
36.524,34.42,35.31,35.744,35.461,36.086999999999996
36.478,34.406,35.413000000000004,35.795,35.453,36.061
36.431999999999995,34.391999999999996,35.522,35.834,35.449,36.035
36.385,34.378,35.635999999999996,35.86,35.448,36.01
36.336999999999996,34.363,35.753,35.873000000000005,35.449,35.986
36.287,34.349000000000004,35.871,35.876,35.451,35.961999999999996
36.236,34.336,35.988,35.869,35.453,35.94
36.183,34.324,36.102,35.854,35.455999999999996,35.919000000000004
36.129,34.313,36.211,35.833,35.46,35.899
36.073,34.303000000000004,36.313,35.806999999999995,35.463,35.881
36.016,34.295,36.406,35.777,35.467,35.865
35.958,34.286,36.489000000000004,35.746,35.472,35.852
35.899,34.279,36.561,35.714,35.478,35.842
35.84,34.273,36.62,35.681,35.486999999999995,35.834
35.781,34.27,36.666,35.65,35.499,35.829
35.723,34.271,36.699,35.619,35.512,35.827
35.666,34.275999999999996,36.719,35.589,35.527,35.828
35.611,34.286,36.727,35.561,35.542,35.833
35.556,34.302,36.723,35.536,35.555,35.842
35.504,34.324,36.708,35.514,35.566,35.854
35.454,34.353,36.681999999999995,35.493,35.573,35.869
35.408,34.391,36.648,35.476,35.576,35.887
35.366,34.436,36.607,35.46,35.575,35.906
35.329,34.491,36.56,35.446999999999996,35.571,35.928000000000004
35.297,34.555,36.51,35.436,35.564,35.949
35.271,34.626999999999995,36.457,35.425,35.555,35.971
35.251,34.707,36.403,35.415,35.546,35.992
35.239000000000004,34.793,36.349000000000004,35.405,35.535,36.012
35.232,34.885999999999996,36.298,35.394,35.524,36.03
35.232,34.982,36.249,35.38,35.510999999999996,36.045
35.236,35.080999999999996,36.205,35.363,35.498000000000005,36.058
35.245,35.181,36.166,35.344,35.483000000000004,36.069
35.257,35.28,36.131,35.321999999999996,35.465,36.076
35.271,35.376,36.102,35.299,35.446,36.079
35.287,35.469,36.078,35.274,35.424,36.076
35.304,35.555,36.059,35.249,35.402,36.069
35.321,35.635,36.044000000000004,35.225,35.379,36.056
35.338,35.707,36.032,35.204,35.355,36.038000000000004
35.355,35.771,36.023,35.187,35.333,36.016
35.371,35.827,36.016,35.174,35.311,35.988
35.385999999999996,35.875,36.010999999999996,35.166,35.29,35.955999999999996
35.399,35.916,36.005,35.164,35.27,35.92
35.411,35.946999999999996,35.999,35.166,35.251999999999995,35.88
35.421,35.97,35.991,35.173,35.234,35.836
35.428000000000004,35.983000000000004,35.981,35.183,35.217,35.788000000000004
35.433,35.986999999999995,35.968,35.195,35.2,35.738
35.436,35.983000000000004,35.953,35.209,35.183,35.686
35.435,35.971,35.936,35.222,35.165,35.632
35.431,35.952,35.918,35.234,35.147,35.576
35.425,35.926,35.898,35.245,35.129,35.519
35.418,35.894,35.876999999999995,35.253,35.11,35.463
35.41,35.858000000000004,35.856,35.26,35.092,35.408
35.402,35.819,35.834,35.266,35.073,35.355
35.394,35.777,35.813,35.271,35.054,35.303000000000004
35.388000000000005,35.735,35.792,35.275999999999996,35.035,35.254
35.383,35.693000000000005,35.772,35.281,35.018,35.208
35.38,35.653,35.754,35.287,35.001,35.165
35.378,35.615,35.74,35.293,34.986,35.125
35.379,35.58,35.73,35.299,34.971,35.089
35.381,35.549,35.725,35.304,34.958,35.056
35.384,35.521,35.725,35.308,34.945,35.027
35.388000000000005,35.496,35.73,35.312,34.931999999999995,35.0
35.391999999999996,35.475,35.739000000000004,35.313,34.918,34.977
35.395,35.455999999999996,35.753,35.313,34.904,34.955
35.396,35.439,35.769,35.311,34.888000000000005,34.934
35.393,35.424,35.788000000000004,35.314,34.871,34.914
35.385999999999996,35.409,35.809,35.323,34.853,34.895
35.373000000000005,35.391999999999996,35.830999999999996,35.338,34.835,34.876999999999995
35.355,35.375,35.853,35.356,34.817,34.859
35.330999999999996,35.357,35.873000000000005,35.376,34.8,34.842
35.302,35.338,35.891,35.394,34.784,34.824
35.268,35.32,35.906,35.407,34.769,34.806999999999995
35.229,35.302,35.916,35.414,34.754,34.788000000000004
35.188,35.285,35.921,35.414,34.74,34.769
35.145,35.269,35.923,35.404,34.726,34.75
35.101,35.254,35.92,35.385999999999996,34.711999999999996,34.729
35.056,35.24,35.912,35.359,34.699,34.707
35.010999999999996,35.228,35.9,35.326,34.685,34.684
34.965,35.217,35.883,35.287,34.672,34.659
34.919000000000004,35.208,35.861,35.245,34.659,34.635
34.874,35.199,35.834,35.202,34.649,34.61
34.830999999999996,35.193000000000005,35.804,35.157,34.641,34.585
34.79,35.188,35.771,35.114000000000004,34.635,34.561
34.751999999999995,35.185,35.736,35.073,34.632,34.538000000000004
34.716,35.183,35.702,35.034,34.631,34.516
34.683,35.184,35.669000000000004,34.999,34.632,34.495
34.654,35.185,35.637,34.968,34.634,34.475
34.626999999999995,35.188,35.607,34.941,34.635999999999996,34.455999999999996
34.604,35.193000000000005,35.58,34.918,34.64,34.44
34.585,35.198,35.556,34.898,34.646,34.425
34.568000000000005,35.205,35.536,34.879,34.655,34.413000000000004
34.555,35.211999999999996,35.519,34.861,34.669000000000004,34.403
34.544000000000004,35.219,35.505,34.843,34.69,34.395
34.535,35.226,35.494,34.823,34.719,34.39
34.529,35.232,35.484,34.802,34.757,34.385
34.525999999999996,35.236999999999995,35.475,34.779,34.804,34.382
34.524,35.242,35.466,34.754,34.858000000000004,34.379
34.524,35.245,35.455,34.728,34.921,34.376999999999995
34.524,35.246,35.442,34.701,34.99,34.373000000000005
34.525,35.246,35.426,34.675,35.064,34.369
34.525,35.243,35.407,34.650999999999996,35.144,34.364000000000004
34.525,35.239000000000004,35.385,34.631,35.229,34.358000000000004
34.524,35.234,35.36,34.614000000000004,35.319,34.352
34.521,35.226,35.332,34.602,35.412,34.345
34.516,35.217,35.3,34.593,35.509,34.336999999999996
34.509,35.205999999999996,35.266,34.589,35.607,34.327
34.501,35.194,35.232,34.586999999999996,35.705,34.315
34.493,35.179,35.196,34.588,35.8,34.301
34.484,35.163000000000004,35.16,34.59,35.891,34.284
34.473,35.146,35.125,34.593,35.976,34.266
34.461,35.126,35.09,34.595,36.053000000000004,34.247
34.446999999999996,35.106,35.056999999999995,34.596,36.12,34.228
34.431999999999995,35.084,35.028,34.595,36.177,34.211
34.416,35.062,35.004,34.591,36.225,34.198
34.4,35.038000000000004,34.983000000000004,34.584,36.263000000000005,34.191
34.382,35.013000000000005,34.967,34.575,36.292,34.192
34.364000000000004,34.988,34.955999999999996,34.563,36.311,34.2
34.346,34.961999999999996,34.949,34.549,36.321999999999996,34.217
34.33,34.936,34.945,34.534,36.324,34.245
34.315,34.91,34.942,34.518,36.318000000000005,34.283
34.302,34.885,34.942,34.501999999999995,36.305,34.336
34.291,34.86,34.942,34.486,36.285,34.405
34.283,34.836,34.943000000000005,34.471,36.26,34.491
34.275999999999996,34.811,34.943000000000005,34.458,36.231,34.594
34.271,34.787,34.943000000000005,34.446999999999996,36.198,34.714
34.266999999999996,34.764,34.94,34.439,36.163000000000004,34.851
34.266,34.741,34.935,34.433,36.125,35.003
34.266999999999996,34.718,34.928000000000004,34.43,36.086,35.169000000000004
34.272,34.696999999999996,34.919000000000004,34.431,36.045,35.345
34.281,34.676,34.907,34.434,36.003,35.529
34.295,34.657,34.891999999999996,34.441,35.961,35.717
34.314,34.639,34.875,34.451,35.92,35.905
34.34,34.623000000000005,34.855,34.463,35.881,36.092
34.376,34.609,34.833,34.478,35.845,36.274
34.421,34.595,34.809,34.495,35.814,36.446999999999996
34.477,34.583,34.785,34.514,35.787,36.61
34.545,34.571,34.762,34.535,35.763000000000005,36.758
34.623000000000005,34.56,34.74,34.559,35.743,36.891
34.711999999999996,34.549,34.722,34.586,35.725,37.006
34.811,34.538000000000004,34.709,34.617,35.707,37.104
34.918,34.528,34.7,34.653,35.689,37.184
35.032,34.519,34.698,34.695,35.67,37.246
35.152,34.510999999999996,34.703,34.742,35.649,37.289
35.275,34.505,34.718,34.797,35.628,37.315
35.398,34.5,34.743,34.858000000000004,35.606,37.325
35.521,34.496,34.78,34.927,35.585,37.32
35.641,34.494,34.83,35.001999999999995,35.565,37.301
35.756,34.493,34.893,35.085,35.547,37.269
35.864000000000004,34.493,34.969,35.173,35.53,37.226
35.963,34.493,35.058,35.266999999999996,35.516,37.175
36.053000000000004,34.493,35.158,35.366,35.504,37.116
36.132,34.494,35.266999999999996,35.466,35.494,37.053000000000004
36.201,34.494,35.384,35.567,35.486,36.988
36.26,34.493,35.507,35.665,35.48,36.922
36.306999999999995,34.491,35.633,35.758,35.477,36.856
36.343,34.486999999999995,35.76,35.844,35.474000000000004,36.794000000000004
36.369,34.481,35.885,35.921,35.473,36.734
36.384,34.473,36.005,35.986,35.472,36.678000000000004
36.389,34.463,36.118,36.039,35.472,36.626
36.385,34.453,36.223,36.078,35.473,36.578
36.374,34.441,36.317,36.104,35.475,36.533
36.355,34.428000000000004,36.400999999999996,36.116,35.478,36.491
36.33,34.415,36.474000000000004,36.117,35.483000000000004,36.451
36.301,34.402,36.533,36.106,35.489000000000004,36.414
36.266,34.389,36.58,36.086999999999996,35.496,36.38
36.227,34.374,36.615,36.061,35.503,36.347
36.185,34.358000000000004,36.638000000000005,36.029,35.51,36.315
36.139,34.342,36.650999999999996,35.994,35.516,36.282
36.092,34.323,36.657,35.955999999999996,35.521,36.25
36.042,34.304,36.655,35.918,35.524,36.216
35.991,34.284,36.648,35.879,35.525,36.181999999999995
35.94,34.264,36.638000000000005,35.841,35.525,36.145
35.889,34.247,36.625,35.806,35.525999999999996,36.108000000000004
35.839,34.233000000000004,36.61,35.775,35.528,36.069
35.791,34.223,36.593,35.746,35.533,36.031
35.745,34.22,36.574,35.72,35.538000000000004,35.993
35.703,34.225,36.554,35.698,35.546,35.955
35.663000000000004,34.239000000000004,36.533,35.678000000000004,35.553000000000004,35.918
35.626999999999995,34.263000000000005,36.512,35.659,35.56,35.883
35.595,34.298,36.491,35.641999999999996,35.563,35.851
35.565,34.344,36.47,35.626,35.564,35.821
35.54,34.399,36.45,35.613,35.56,35.795
35.518,34.464,36.43,35.608000000000004,35.553000000000004,35.773
35.5,34.537,36.41,35.611999999999995,35.542,35.754
35.484,34.619,36.391,35.622,35.529,35.74
35.471,34.705999999999996,36.371,35.639,35.514,35.73
35.46,34.8,36.35,35.658,35.497,35.723
35.45,34.896,36.328,35.678000000000004,35.48,35.72
35.442,34.993,36.305,35.695,35.463,35.722
35.435,35.089,36.281,35.705999999999996,35.444,35.727
35.429,35.183,36.257,35.711,35.425,35.736999999999995
35.423,35.273,36.233000000000004,35.707,35.405,35.75
35.417,35.358000000000004,36.208,35.695,35.384,35.768
35.411,35.436,36.181999999999995,35.676,35.361999999999995,35.789
35.404,35.506,36.156,35.65,35.34,35.812
35.396,35.568000000000005,36.13,35.621,35.316,35.836
35.388000000000005,35.621,36.103,35.588,35.292,35.86
35.379,35.665,36.077,35.554,35.266999999999996,35.883
35.37,35.699,36.053000000000004,35.52,35.243,35.905
35.36,35.726,36.031,35.488,35.218,35.925
35.351,35.744,36.010999999999996,35.457,35.194,35.942
35.342,35.755,35.993,35.429,35.171,35.957
35.335,35.760999999999996,35.978,35.404,35.148,35.969
35.327,35.762,35.966,35.381,35.126,35.976
35.321,35.759,35.958,35.36,35.105,35.98
35.314,35.753,35.953,35.342,35.085,35.978
35.308,35.745,35.953,35.325,35.067,35.971
35.303000000000004,35.735,35.955,35.312,35.051,35.96
35.3,35.723,35.959,35.302,35.035,35.943000000000005
35.297,35.711,35.964,35.295,35.02,35.922
35.296,35.698,35.97,35.293,35.004,35.896
35.297,35.686,35.975,35.295,34.989000000000004,35.864000000000004
35.3,35.673,35.979,35.3,34.973,35.829
35.304,35.66,35.983000000000004,35.309,34.957,35.788000000000004
35.31,35.647,35.984,35.321,34.942,35.745
35.318000000000005,35.634,35.985,35.334,34.926,35.698
35.328,35.621,35.983000000000004,35.348,34.911,35.649
35.338,35.607,35.98,35.361999999999995,34.897,35.598
35.349000000000004,35.594,35.975,35.375,34.884,35.545
35.36,35.58,35.969,35.387,34.872,35.493
35.369,35.566,35.963,35.396,34.861,35.441
35.376999999999995,35.553000000000004,35.957,35.404,34.849000000000004,35.391999999999996
35.381,35.539,35.95,35.408,34.838,35.344
35.381,35.525999999999996,35.944,35.41,34.826,35.3
35.376999999999995,35.512,35.937,35.409,34.815,35.257
35.366,35.499,35.93,35.405,34.803000000000004,35.217
35.349000000000004,35.485,35.923,35.398,34.792,35.179
35.326,35.472,35.916,35.388000000000005,34.783,35.143
35.297,35.459,35.909,35.375,34.775,35.107
35.262,35.445,35.902,35.359,34.766999999999996,35.073
35.221,35.43,35.894,35.34,34.760999999999996,35.04
35.175,35.415,35.885,35.317,34.754,35.008
35.124,35.399,35.876,35.292,34.747,34.978
35.07,35.382,35.867,35.266,34.738,34.95
35.012,35.365,35.857,35.236999999999995,34.729,34.924
34.951,35.347,35.845,35.209,34.718,34.898
34.891,35.329,35.832,35.18,34.707,34.874
34.83,35.311,35.816,35.153,34.696999999999996,34.851
34.771,35.293,35.799,35.126999999999995,34.689,34.827
34.715,35.277,35.778,35.104,34.684,34.803000000000004
34.663000000000004,35.262,35.755,35.084,34.684,34.778
34.615,35.249,35.729,35.067,34.69,34.751999999999995
34.573,35.238,35.699,35.052,34.703,34.725
34.535,35.229,35.667,35.04,34.724000000000004,34.695
34.503,35.222,35.632,35.029,34.754,34.664
34.475,35.217,35.594,35.02,34.792,34.63
34.453,35.214,35.555,35.012,34.839,34.594
34.434,35.211999999999996,35.514,35.001999999999995,34.895,34.556
34.418,35.213,35.474000000000004,34.992,34.959,34.519
34.404,35.216,35.434,34.979,35.032,34.482
34.394,35.221,35.396,34.963,35.113,34.446999999999996
34.393,35.228,35.359,34.945,35.2,34.412
34.402,35.235,35.326,34.923,35.294000000000004,34.38
34.419000000000004,35.243,35.296,34.899,35.391999999999996,34.35
34.44,35.25,35.269,34.875,35.494,34.324
34.461,35.258,35.247,34.851,35.595,34.3
34.48,35.266,35.228,34.828,35.695,34.28
34.493,35.272,35.211999999999996,34.809,35.791,34.263000000000005
34.497,35.278,35.201,34.793,35.88,34.25
34.492,35.281,35.192,34.782,35.961,34.24
34.477,35.283,35.186,34.775999999999996,36.032,34.234
34.451,35.282,35.18,34.774,36.092,34.231
34.415,35.28,35.175,34.775999999999996,36.141999999999996,34.231
34.371,35.275,35.168,34.78,36.181,34.233000000000004
34.32,35.269,35.159,34.786,36.211,34.236
34.264,35.260999999999996,35.148,34.791,36.231,34.24
34.205,35.251999999999995,35.135,34.794000000000004,36.243,34.244
34.145,35.24,35.121,34.795,36.246,34.248000000000005
34.086,35.227,35.104,34.793,36.242,34.251
34.03,35.211999999999996,35.086999999999996,34.788000000000004,36.23,34.253
33.978,35.195,35.067,34.779,36.213,34.254
33.931999999999995,35.177,35.047,34.766999999999996,36.19,34.253
33.891999999999996,35.157,35.025999999999996,34.751999999999995,36.162,34.25
33.861,35.135,35.004,34.733000000000004,36.131,34.245
33.836999999999996,35.111999999999995,34.982,34.713,36.097,34.236999999999995
33.821999999999996,35.088,34.96,34.69,36.059,34.225
33.814,35.062,34.938,34.666,36.02,34.211
33.814,35.035,34.915,34.641,35.98,34.193000000000005
33.82,35.008,34.893,34.616,35.939,34.171
33.830999999999996,34.98,34.87,34.592,35.898,34.146
33.846,34.952,34.848,34.57,35.859,34.119
33.865,34.924,34.828,34.55,35.82,34.091
33.885,34.897,34.81,34.534,35.783,34.06
33.905,34.871,34.793,34.522,35.747,34.029
33.925,34.845,34.779,34.514,35.714,33.998000000000005
33.945,34.82,34.766999999999996,34.510999999999996,35.681999999999995,33.969
33.961999999999996,34.794000000000004,34.756,34.510999999999996,35.650999999999996,33.944
33.978,34.766999999999996,34.748000000000005,34.514,35.623000000000005,33.925
33.991,34.74,34.741,34.52,35.595,33.914
34.001,34.711999999999996,34.736999999999995,34.527,35.568000000000005,33.912
34.007,34.685,34.736,34.536,35.542,33.922
34.009,34.657,34.736999999999995,34.547,35.516,33.945
34.007,34.629,34.741,34.558,35.491,33.983000000000004
34.001999999999995,34.602,34.748000000000005,34.571,35.467,34.038000000000004
33.993,34.575,34.757,34.586,35.445,34.11
33.98,34.551,34.768,34.605,35.428000000000004,34.2
33.964,34.529,34.783,34.626999999999995,35.413000000000004,34.308
33.946999999999996,34.510999999999996,34.802,34.653,35.400999999999996,34.435
33.928000000000004,34.496,34.825,34.685,35.391,34.58
33.909,34.484,34.855,34.724000000000004,35.382,34.741
33.891,34.474000000000004,34.894,34.772,35.372,34.918
33.876,34.466,34.942,34.828,35.361,35.107
33.865,34.46,34.999,34.893,35.349000000000004,35.305
33.86,34.455999999999996,35.067,34.967,35.335,35.509
33.864000000000004,34.452,35.145,35.05,35.32,35.717
33.879,34.449,35.234,35.14,35.304,35.924
33.906,34.448,35.330999999999996,35.236,35.287,36.13
33.946999999999996,34.446999999999996,35.437,35.336,35.272,36.329
34.004,34.446,35.549,35.438,35.26,36.52
34.075,34.446999999999996,35.665,35.539,35.251,36.7
34.162,34.449,35.784,35.637,35.246,36.867
34.264,34.451,35.902,35.728,35.245,37.019
34.38,34.454,36.016999999999996,35.81,35.248000000000005,37.156
34.508,34.458,36.128,35.882,35.253,37.275999999999996
34.645,34.461999999999996,36.232,35.942,35.26,37.379
34.789,34.466,36.328,35.989000000000004,35.268,37.466
34.939,34.47,36.414,36.023,35.274,37.535
35.091,34.474000000000004,36.49,36.046,35.279,37.589
35.243,34.477,36.555,36.056999999999995,35.282,37.626999999999995
35.391999999999996,34.48,36.608000000000004,36.059,35.284,37.65
35.534,34.482,36.649,36.054,35.285,37.658
35.668,34.484,36.679,36.042,35.285,37.653
35.791,34.485,36.696999999999996,36.025,35.286,37.637
35.900999999999996,34.485,36.705,36.005,35.288000000000004,37.61
35.997,34.482,36.703,35.981,35.289,37.574
36.078,34.476,36.692,35.955999999999996,35.291,37.532
36.143,34.468,36.673,35.93,35.294000000000004,37.485
36.192,34.457,36.649,35.904,35.295,37.435
36.225,34.444,36.619,35.879,35.293,37.384
36.243,34.43,36.585,35.855,35.287,37.333
36.246,34.416,36.549,35.832,35.277,37.282
36.235,34.403,36.510999999999996,35.811,35.263000000000005,37.232
36.211999999999996,34.393,36.473,35.792,35.245,37.183
36.179,34.385999999999996,36.437,35.773,35.224000000000004,37.134
36.137,34.383,36.404,35.756,35.2,37.086
36.088,34.387,36.374,35.738,35.175,37.041
36.032,34.397,36.348,35.719,35.149,36.998000000000005
35.972,34.415,36.325,35.698,35.124,36.957
35.91,34.441,36.305,35.675,35.099000000000004,36.919000000000004
35.847,34.476,36.288000000000004,35.650999999999996,35.073,36.883
35.783,34.521,36.274,35.626,35.047,36.848
35.721,34.575,36.263000000000005,35.6,35.02,36.813
35.661,34.638000000000005,36.256,35.574,34.992,36.778
35.604,34.708,36.251,35.547,34.963,36.743
35.55,34.786,36.25,35.521,34.933,36.707
35.5,34.869,36.249,35.497,34.904,36.67
35.455,34.955999999999996,36.248000000000005,35.474000000000004,34.876,36.632
35.414,35.046,36.245,35.454,34.85,36.593
35.376,35.135999999999996,36.239000000000004,35.438,34.825,36.553000000000004
35.342,35.226,36.229,35.424,34.802,36.513000000000005
35.309,35.313,36.216,35.414,34.781,36.473
35.279,35.396,36.199,35.406,34.762,36.433
35.25,35.474000000000004,36.178000000000004,35.400999999999996,34.745,36.394
35.221,35.545,36.153,35.398,34.728,36.357
35.193000000000005,35.61,36.125,35.396,34.711999999999996,36.323
35.165,35.667,36.093,35.394,34.696,36.292
35.135999999999996,35.717,36.058,35.391999999999996,34.68,36.266
35.107,35.759,36.022,35.389,34.663000000000004,36.245
35.079,35.794000000000004,35.986999999999995,35.385,34.645,36.23
35.05,35.821999999999996,35.954,35.379,34.626999999999995,36.22
35.022,35.843,35.924,35.37,34.609,36.217
34.995,35.857,35.899,35.359,34.592,36.219
34.968,35.866,35.878,35.346,34.576,36.228
34.941,35.87,35.86,35.333,34.561,36.241
34.915,35.869,35.847,35.319,34.548,36.257
34.89,35.864000000000004,35.838,35.305,34.537,36.277
34.867,35.857,35.832,35.294000000000004,34.528,36.3
34.845,35.847,35.83,35.286,34.519,36.324
34.824,35.835,35.830999999999996,35.281,34.510999999999996,36.349000000000004
34.806,35.823,35.836999999999996,35.28,34.501999999999995,36.373000000000005
34.791,35.809,35.845,35.282,34.491,36.397
34.78,35.795,35.855,35.289,34.478,36.419000000000004
34.774,35.781,35.867,35.298,34.465,36.441
34.772,35.766999999999996,35.88,35.311,34.45,36.46
34.775,35.754,35.894,35.327,34.436,36.477
34.784,35.742,35.906,35.343,34.423,36.491
34.797,35.73,35.916,35.361,34.412,36.5
34.814,35.719,35.924,35.376999999999995,34.404,36.505
34.835,35.709,35.927,35.391,34.397,36.506
34.86,35.698,35.926,35.402,34.391999999999996,36.501999999999995
34.887,35.688,35.919000000000004,35.408,34.388000000000005,36.493
34.916,35.678000000000004,35.907,35.408,34.383,36.478
34.944,35.667,35.888000000000005,35.402,34.376999999999995,36.458
34.972,35.655,35.865,35.39,34.37,36.433
34.999,35.641,35.836999999999996,35.372,34.361,36.402
35.024,35.628,35.806,35.349000000000004,34.351,36.368
35.046,35.616,35.772,35.321,34.34,36.329
35.065,35.603,35.738,35.289,34.33,36.286
35.079,35.589,35.703,35.255,34.32,36.239000000000004
35.089,35.576,35.67,35.219,34.312,36.189
35.094,35.561,35.638000000000005,35.183,34.306999999999995,36.137
35.096,35.544000000000004,35.608000000000004,35.148,34.305,36.083
35.093,35.525999999999996,35.580999999999996,35.116,34.308,36.028
35.086,35.506,35.556999999999995,35.086,34.316,35.973
35.076,35.483000000000004,35.536,35.059,34.328,35.918
35.063,35.458,35.518,35.037,34.346,35.864000000000004
35.048,35.43,35.503,35.016999999999996,34.369,35.812
35.031,35.400999999999996,35.489000000000004,35.001999999999995,34.399,35.762
35.013000000000005,35.369,35.477,34.989000000000004,34.436,35.715
34.994,35.338,35.465,34.979,34.482,35.67
34.974000000000004,35.306999999999995,35.453,34.97,34.537,35.628
34.954,35.277,35.44,34.961,34.602,35.586999999999996
34.934,35.248000000000005,35.425,34.951,34.676,35.548
34.914,35.22,35.409,34.94,34.760999999999996,35.51
34.895,35.194,35.391999999999996,34.928000000000004,34.854,35.473
34.878,35.17,35.373000000000005,34.913000000000004,34.954,35.437
34.861999999999995,35.15,35.352,34.895,35.06,35.402
34.848,35.132,35.327,34.875,35.169000000000004,35.368
34.834,35.115,35.3,34.852,35.281,35.335
34.821,35.096,35.27,34.828,35.391,35.303000000000004
34.808,35.076,35.236999999999995,34.803000000000004,35.498000000000005,35.272
34.795,35.059,35.202,34.778,35.599000000000004,35.241
34.782,35.045,35.167,34.753,35.693000000000005,35.21
34.768,35.033,35.132,34.731,35.779,35.177
34.751999999999995,35.027,35.099000000000004,34.71,35.854,35.143
34.735,35.028,35.067,34.692,35.918,35.108000000000004
34.715,35.037,35.038000000000004,34.676,35.97,35.07
34.694,35.054,35.012,34.663000000000004,36.01,35.032
34.671,35.077,34.989000000000004,34.650999999999996,36.039,34.992
34.644,35.103,34.97,34.641,36.056999999999995,34.951
34.616,35.132,34.953,34.633,36.064,34.909
34.586,35.16,34.941,34.626,36.063,34.866
34.555,35.185,34.931999999999995,34.619,36.054,34.823
34.523,35.205999999999996,34.927,34.613,36.036,34.78
34.49,35.221,34.926,34.607,36.012,34.739000000000004
34.457,35.23,34.928000000000004,34.6,35.983000000000004,34.699
34.423,35.233000000000004,34.933,34.592,35.949,34.661
34.391,35.228,34.94,34.584,35.913000000000004,34.625
34.36,35.217,34.946999999999996,34.574,35.875,34.592
34.329,35.2,34.953,34.563,35.836999999999996,34.561
34.301,35.178000000000004,34.957,34.551,35.798,34.534
34.275,35.152,34.96,34.536,35.762,34.51
34.251,35.123000000000005,34.959,34.52,35.727,34.489000000000004
34.23,35.092,34.955,34.503,35.694,34.471
34.211999999999996,35.06,34.946999999999996,34.485,35.664,34.455999999999996
34.196999999999996,35.028,34.933,34.467,35.635999999999996,34.444
34.185,34.996,34.915,34.449,35.609,34.434
34.177,34.965,34.891,34.431999999999995,35.584,34.426
34.172,34.935,34.861999999999995,34.416,35.56,34.42
34.169000000000004,34.906,34.830999999999996,34.402,35.538000000000004,34.417
34.17,34.879,34.797,34.39,35.516999999999996,34.417
34.172,34.854,34.762,34.381,35.497,34.42
34.175,34.83,34.727,34.375,35.479,34.426
34.18,34.806999999999995,34.694,34.371,35.463,34.433
34.185,34.786,34.663000000000004,34.369,35.45,34.442
34.189,34.766,34.635,34.369,35.437,34.449
34.193000000000005,34.747,34.611,34.37,35.426,34.453
34.195,34.729,34.59,34.37,35.414,34.454
34.196,34.711999999999996,34.574,34.371,35.4,34.451
34.195,34.696,34.563,34.37,35.383,34.444
34.192,34.681,34.556999999999995,34.368,35.365,34.431
34.186,34.666,34.556,34.365,35.346,34.414
34.177,34.652,34.56,34.361999999999995,35.326,34.391999999999996
34.167,34.638000000000005,34.567,34.359,35.306,34.365
34.155,34.624,34.577,34.358000000000004,35.288000000000004,34.336
34.141999999999996,34.61,34.59,34.361,35.273,34.304
34.126999999999995,34.594,34.606,34.37,35.26,34.27
34.111999999999995,34.578,34.626,34.385,35.249,34.236
34.097,34.56,34.649,34.41,35.241,34.201
34.08,34.541,34.677,34.444,35.234,34.167
34.064,34.522,34.709,34.49,35.229,34.134
34.048,34.501999999999995,34.747,34.547,35.225,34.103
34.032,34.482,34.791,34.615,35.223,34.074
34.016999999999996,34.463,34.842,34.692,35.221,34.048
34.003,34.445,34.9,34.778,35.222,34.025
33.991,34.429,34.966,34.87,35.224000000000004,34.004
33.983000000000004,34.416,35.039,34.966,35.229,33.985
33.978,34.405,35.121,35.064,35.236999999999995,33.969
33.977,34.396,35.211,35.161,35.246,33.954
33.983000000000004,34.389,35.308,35.257,35.256,33.942
33.996,34.384,35.411,35.349000000000004,35.266,33.933
34.018,34.38,35.518,35.435,35.275,33.928000000000004
34.05,34.376,35.628,35.513000000000005,35.283,33.928000000000004
34.092,34.372,35.739000000000004,35.584,35.289,33.935
34.148,34.369,35.849000000000004,35.647,35.294000000000004,33.95
34.216,34.365,35.957,35.701,35.298,33.975
34.296,34.361999999999995,36.063,35.746,35.302,34.013000000000005
34.39,34.358000000000004,36.163000000000004,35.782,35.304,34.065
34.495,34.355,36.256,35.81,35.305,34.133
34.61,34.352,36.34,35.829,35.305,34.217
34.733000000000004,34.348,36.416,35.84,35.302,34.318000000000005
34.864000000000004,34.344,36.481,35.843,35.296,34.436
34.999,34.34,36.536,35.84,35.287,34.571
35.135999999999996,34.335,36.579,35.83,35.274,34.724000000000004
35.273,34.33,36.611999999999995,35.816,35.26,34.891999999999996
35.409,34.324,36.634,35.799,35.244,35.075
35.541,34.319,36.646,35.779,35.227,35.269
35.668,34.313,36.646,35.758,35.21,35.472
35.786,34.308,36.637,35.738,35.194,35.681
35.894,34.305,36.618,35.718,35.177,35.893
35.992,34.304,36.59,35.7,35.161,36.104
36.078,34.305,36.556,35.681,35.143,36.312
36.152,34.309,36.518,35.663000000000004,35.124,36.515
36.215,34.316,36.476,35.644,35.104,36.711
36.266999999999996,34.327,36.433,35.624,35.083,36.897
36.306999999999995,34.343,36.389,35.603,35.062,37.071999999999996
36.336999999999996,34.361999999999995,36.346,35.58,35.04,37.235
36.357,34.387,36.306,35.556,35.021,37.382
36.369,34.418,36.269,35.531,35.003,37.516
36.372,34.455,36.236999999999995,35.506,34.986,37.634
36.369,34.499,36.209,35.48,34.97,37.736999999999995
36.358000000000004,34.551,36.186,35.454,34.954,37.824
36.342,34.61,36.169000000000004,35.429,34.936,37.896
36.32,34.675,36.155,35.405,34.916,37.953
36.294000000000004,34.746,36.145,35.382,34.894,37.995
36.264,34.821,36.138000000000005,35.361999999999995,34.87,38.025
36.23,34.9,36.133,35.345,34.846,38.041
36.192,34.98,36.13,35.332,34.823,38.047
36.152,35.062,36.129,35.321,34.801,38.042
36.11,35.144,36.128,35.313,34.782,38.027
36.066,35.224000000000004,36.126,35.308,34.766,38.005
36.02,35.301,36.122,35.303000000000004,34.751,37.975
35.973,35.375,36.116,35.299,34.738,37.939
35.925,35.444,36.107,35.295,34.726,37.898
35.876999999999995,35.506,36.093,35.29,34.711,37.852
35.828,35.562,36.077,35.284,34.695,37.803000000000004
35.778,35.61,36.056999999999995,35.275,34.676,37.751
35.729,35.65,36.034,35.265,34.655,37.696999999999996
35.679,35.683,36.008,35.253,34.634,37.641
35.629,35.708,35.981,35.241,34.613,37.584
35.58,35.726,35.954,35.23,34.594,37.525999999999996
35.532,35.736999999999995,35.926,35.219,34.576,37.469
35.486999999999995,35.741,35.899,35.21,34.559,37.412
35.443000000000005,35.739000000000004,35.873000000000005,35.202,34.545,37.357
35.402,35.732,35.849000000000004,35.196999999999996,34.531,37.303000000000004
35.363,35.719,35.829,35.192,34.519,37.25
35.327,35.702,35.813,35.189,34.507,37.199
35.295,35.681999999999995,35.802,35.189,34.497,37.148
35.266,35.66,35.796,35.19,34.486999999999995,37.098
35.241,35.635999999999996,35.795,35.194,34.478,37.049
35.22,35.613,35.798,35.2,34.471,37.001999999999995
35.203,35.59,35.806,35.21,34.465,36.955
35.189,35.57,35.816,35.221,34.46,36.909
35.179,35.552,35.829,35.235,34.457,36.866
35.173,35.536,35.843,35.25,34.454,36.825
35.17,35.523,35.858000000000004,35.266999999999996,34.452,36.788000000000004
35.169000000000004,35.512,35.874,35.284,34.45,36.754
35.172,35.501999999999995,35.887,35.3,34.449,36.723
35.176,35.494,35.899,35.314,34.449,36.696
35.183,35.486999999999995,35.907,35.326,34.452,36.673
35.192,35.48,35.91,35.333,34.459,36.653
35.202,35.473,35.909,35.335,34.47,36.637
35.213,35.466,35.903,35.332,34.488,36.623000000000005
35.224000000000004,35.458,35.891999999999996,35.325,34.513000000000005,36.613
35.236,35.451,35.876,35.313,34.545,36.606
35.247,35.444,35.857,35.299,34.584,36.603
35.257,35.437,35.833,35.281,34.631,36.603
35.265,35.43,35.806999999999995,35.263000000000005,34.685,36.607
35.273,35.424,35.777,35.243,34.747,36.613
35.278,35.416,35.746,35.224000000000004,34.817,36.621
35.282,35.409,35.714,35.204,34.894,36.631
35.283,35.400999999999996,35.681,35.186,34.978,36.641999999999996
35.283,35.391,35.649,35.169000000000004,35.068000000000005,36.652
35.281,35.381,35.618,35.153,35.163000000000004,36.661
35.279,35.37,35.589,35.138000000000005,35.26,36.669000000000004
35.277,35.357,35.562,35.124,35.358000000000004,36.673
35.274,35.343,35.537,35.111,35.452,36.674
35.272,35.328,35.514,35.097,35.542,36.672
35.269,35.311,35.493,35.083,35.626,36.666
35.266999999999996,35.293,35.475,35.069,35.703,36.657
35.265,35.274,35.459,35.053000000000004,35.772,36.645
35.264,35.254,35.446,35.035,35.835,36.629
35.263000000000005,35.235,35.436,35.016,35.89,36.609
35.263000000000005,35.217,35.427,34.996,35.938,36.586999999999996
35.263000000000005,35.201,35.419000000000004,34.975,35.979,36.561
35.264,35.186,35.41,34.954,36.010999999999996,36.533
35.265,35.174,35.4,34.931999999999995,36.035,36.501999999999995
35.266,35.165,35.387,34.911,36.05,36.469
35.266,35.159,35.371,34.89,36.056,36.433
35.265,35.156,35.353,34.871,36.052,36.395
35.260999999999996,35.154,35.332,34.853,36.039,36.355
35.255,35.152,35.308,34.836999999999996,36.02,36.314
35.245,35.150999999999996,35.28,34.823,35.994,36.271
35.232,35.15,35.25,34.811,35.964,36.228
35.214,35.148,35.218,34.8,35.931999999999995,36.185
35.192,35.146,35.185,34.79,35.898,36.141
35.166,35.144,35.15,34.78,35.865,36.097
35.135999999999996,35.143,35.116,34.771,35.832,36.053000000000004
35.103,35.141999999999996,35.082,34.760999999999996,35.801,36.009
35.067,35.14,35.05,34.751,35.771,35.966
35.029,35.138000000000005,35.021,34.74,35.742,35.923
34.989000000000004,35.135999999999996,34.996,34.729,35.714,35.881
34.948,35.132,34.974000000000004,34.718,35.686,35.839
34.907,35.128,34.955999999999996,34.705999999999996,35.658,35.797
34.866,35.122,34.943000000000005,34.693000000000005,35.629,35.756
34.824,35.115,34.934,34.68,35.601,35.714
34.783,35.107,34.928000000000004,34.667,35.574,35.673
34.743,35.098,34.925,34.653,35.549,35.631
34.704,35.089,34.925,34.639,35.525,35.589
34.667,35.079,34.928000000000004,34.625,35.504,35.547
34.634,35.069,34.933,34.611,35.486,35.504
34.603,35.058,34.939,34.598,35.471,35.461
34.577,35.048,34.944,34.585,35.458,35.416
34.553000000000004,35.038000000000004,34.946999999999996,34.575,35.446,35.371
34.534,35.029,34.946999999999996,34.566,35.433,35.323
34.516999999999996,35.02,34.942,34.559,35.42,35.273
34.503,35.012,34.935,34.555,35.405,35.223
34.493,35.004,34.924,34.554,35.388000000000005,35.171
34.486,34.997,34.911,34.556,35.369,35.119
34.481,34.99,34.894,34.559,35.349000000000004,35.066
34.478,34.983000000000004,34.875,34.563,35.329,35.014
34.476,34.976,34.854,34.566,35.31,34.963
34.474000000000004,34.969,34.830999999999996,34.568000000000005,35.293,34.913000000000004
34.473,34.963,34.806,34.567,35.277,34.866
34.472,34.955999999999996,34.78,34.563,35.264,34.821
34.47,34.948,34.753,34.556,35.254,34.779
34.467,34.94,34.731,34.545,35.246,34.739000000000004
34.461,34.93,34.722,34.531,35.241,34.703
34.453,34.92,34.726,34.515,35.236999999999995,34.67
34.443000000000005,34.91,34.743,34.497,35.234,34.64
34.43,34.898,34.769,34.477,35.231,34.613
34.415,34.885999999999996,34.798,34.457,35.229,34.589
34.398,34.873000000000005,34.827,34.438,35.227,34.566
34.38,34.859,34.851,34.421,35.226,34.545
34.361,34.843,34.867,34.407,35.226,34.525
34.342,34.825,34.875,34.397,35.228,34.508
34.323,34.805,34.874,34.391,35.231,34.492
34.306,34.783,34.865,34.391999999999996,35.235,34.478
34.29,34.759,34.846,34.398,35.241,34.466
34.275,34.735,34.82,34.412,35.248000000000005,34.454
34.262,34.711,34.788000000000004,34.434,35.257,34.443000000000005
34.251,34.688,34.753,34.463,35.265,34.433
34.242,34.666,34.717,34.501,35.273,34.422
34.236999999999995,34.646,34.684,34.546,35.28,34.411
34.234,34.629,34.656,34.6,35.284,34.399
34.234,34.614000000000004,34.635999999999996,34.662,35.287,34.385
34.236999999999995,34.602,34.625,34.732,35.286,34.37
34.242,34.591,34.626999999999995,34.809,35.282,34.354
34.249,34.580999999999996,34.641,34.891999999999996,35.275999999999996,34.335
34.258,34.571,34.67,34.981,35.268,34.316
34.268,34.561,34.713,35.075,35.259,34.294000000000004
34.279,34.552,34.771,35.172,35.248000000000005,34.271
34.289,34.542,34.842,35.27,35.236999999999995,34.246
34.299,34.531,34.925,35.369,35.226,34.22
34.308,34.522,35.02,35.466,35.215,34.195
34.315,34.512,35.124,35.56,35.202,34.169000000000004
34.321,34.503,35.234,35.648,35.187,34.144
34.325,34.495,35.348,35.729,35.17,34.12
34.325,34.486,35.464,35.803000000000004,35.150999999999996,34.097
34.321999999999996,34.478,35.578,35.868,35.13,34.075
34.316,34.47,35.69,35.925,35.106,34.055
34.308,34.461999999999996,35.796,35.974000000000004,35.082,34.037
34.297,34.454,35.894,36.015,35.058,34.021
34.285,34.446999999999996,35.983000000000004,36.046,35.035,34.007
34.272,34.44,36.063,36.069,35.013000000000005,33.994
34.26,34.435,36.132,36.083,34.994,33.983000000000004
34.25,34.43,36.19,36.089,34.977,33.972
34.243,34.427,36.236999999999995,36.085,34.961999999999996,33.963
34.242,34.426,36.272,36.073,34.948,33.954
34.249,34.427,36.295,36.051,34.937,33.944
34.265,34.431,36.308,36.021,34.936,33.933
34.292,34.439,36.311,35.983000000000004,34.946,33.92
34.332,34.452,36.305,35.939,34.966,33.907
34.385999999999996,34.469,36.29,35.891,34.993,33.893
34.455,34.493,36.266999999999996,35.84,35.023,33.878
34.54,34.523,36.238,35.788000000000004,35.054,33.861
34.641999999999996,34.56,36.202,35.739000000000004,35.080999999999996,33.843
