Trial 1:0back,Trial 2:2back,Trial 3:3back,Trial 4:2back,Trial 5:3back,Trial 6:0back
34.454,41.77,36.104,31.884,31.199,30.408
34.37,41.75899999999999,36.055,31.858,31.145,30.379
34.289,41.717,36.01,31.829,31.09,30.35
34.211999999999996,41.648999999999994,35.967,31.799,31.034000000000002,30.322
34.139,41.559,35.928000000000004,31.768,30.976999999999997,30.293000000000003
34.071,41.452,35.891,31.737,30.92,30.265
34.006,41.333,35.858000000000004,31.706,30.864,30.237
33.945,41.20399999999999,35.828,31.675,30.81,30.208000000000002
33.889,41.067,35.801,31.644000000000002,30.76,30.177
33.835,40.925,35.779,31.612,30.714000000000002,30.144000000000002
33.785,40.78,35.760999999999996,31.581,30.674,30.109
33.736999999999995,40.633,35.748000000000005,31.549,30.641,30.072
33.692,40.485,35.741,31.516,30.615,30.033
33.649,40.336,35.74,31.483,30.596,29.991999999999997
33.608000000000004,40.188,35.747,31.449,30.585,29.949
33.57,40.039,35.760999999999996,31.416,30.583000000000002,29.904
33.533,39.891,35.783,31.383000000000003,30.588,29.857
33.498000000000005,39.744,35.812,31.351,30.6,29.811
33.464,39.598,35.847,31.32,30.619,29.765
33.43,39.454,35.885,31.29,30.644000000000002,29.721999999999998
33.396,39.313,35.925,31.268,30.678,29.682
33.363,39.174,35.967,31.256,30.721999999999998,29.649
33.330999999999996,39.037,36.008,31.256999999999998,30.781,29.625999999999998
33.3,38.902,36.047,31.269000000000002,30.857,29.616999999999997
33.271,38.768,36.085,31.29,30.956999999999997,29.627
33.243,38.637,36.121,31.318,31.087,29.663
33.217,38.508,36.154,31.351,31.255,29.734
33.192,38.38,36.185,31.389,31.469,29.848000000000003
33.17,38.255,36.211999999999996,31.434,31.736,30.011999999999997
33.157,38.132,36.235,31.49,32.063,30.236
33.155,38.009,36.255,31.561,32.455,30.53
33.163000000000004,37.887,36.27,31.653000000000002,32.915,30.9
33.179,37.766,36.281,31.772,33.442,31.351999999999997
33.201,37.645,36.288000000000004,31.926,34.032,31.886
33.225,37.524,36.29,32.12,34.677,32.5
33.248000000000005,37.402,36.29,32.361,35.369,33.188
33.269,37.282,36.286,32.650999999999996,36.094,33.941
33.283,37.163000000000004,36.278,32.993,36.839,34.747
33.291,37.047,36.268,33.387,37.589,35.59
33.29,36.935,36.254,33.828,38.329,36.455999999999996
33.28,36.826,36.238,34.31,39.046,37.329
33.26,36.723,36.217,34.823,39.727,38.19
33.232,36.625,36.194,35.358000000000004,40.361,39.024
33.196999999999996,36.534,36.168,35.905,40.94,39.818000000000005
33.155,36.449,36.14,36.452,41.458,40.556999999999995
33.109,36.373000000000005,36.111,36.989000000000004,41.91,41.233999999999995
33.061,36.305,36.080999999999996,37.507,42.295,41.841
33.012,36.246,36.05,37.997,42.613,42.373999999999995
32.964,36.196999999999996,36.018,38.452,42.86600000000001,42.833999999999996
32.916,36.159,35.984,38.865,43.056999999999995,43.22
32.87,36.132,35.949,39.234,43.19,43.537
32.826,36.116,35.913000000000004,39.556999999999995,43.27,43.788000000000004
32.784,36.111,35.875,39.833,43.303000000000004,43.979
32.745,36.118,35.835,40.062,43.297,44.11600000000001
32.709,36.137,35.796,40.247,43.256,44.206
32.674,36.167,35.756,40.39,43.188,44.258
32.643,36.207,35.718,40.495,43.097,44.277
32.614000000000004,36.257,35.681,40.565,42.988,44.27
32.588,36.316,35.646,40.605,42.865,44.244
32.566,36.382,35.613,40.619,42.731,44.201
32.547,36.455999999999996,35.582,40.611,42.59,44.148
32.531,36.537,35.552,40.586,42.442,44.085
32.516999999999996,36.622,35.524,40.547,42.288000000000004,44.013999999999996
32.506,36.711999999999996,35.498000000000005,40.497,42.129,43.938
32.496,36.803000000000004,35.473,40.436,41.965,43.856
32.488,36.894,35.451,40.366,41.79600000000001,43.766999999999996
32.481,36.985,35.43,40.287,41.623000000000005,43.673
32.474000000000004,37.071999999999996,35.412,40.2,41.446000000000005,43.571999999999996
32.465,37.156,35.395,40.109,41.265,43.464
32.454,37.235,35.378,40.018,41.08,43.347
32.442,37.306999999999995,35.36,39.931,40.891,43.222
32.426,37.373000000000005,35.339,39.846,40.698,43.088
32.407,37.43,35.316,39.764,40.503,42.943999999999996
32.387,37.479,35.289,39.681999999999995,40.305,42.792
32.364000000000004,37.518,35.260999999999996,39.599000000000004,40.105,42.632
32.34,37.547,35.231,39.513000000000005,39.903,42.465
32.315,37.565,35.201,39.423,39.7,42.292
32.29,37.571999999999996,35.172,39.328,39.497,42.11600000000001
32.266,37.566,35.144,39.23,39.293,41.937
32.242,37.546,35.118,39.129,39.089,41.758
32.218,37.513000000000005,35.093,39.025,38.885999999999996,41.581
32.195,37.467,35.069,38.92,38.685,41.406000000000006
32.173,37.409,35.046,38.813,38.486999999999995,41.236000000000004
32.152,37.34,35.027,38.707,38.292,41.071000000000005
32.133,37.262,35.01,38.603,38.101,40.914
32.115,37.176,34.997,38.501,37.913000000000004,40.765
32.1,37.085,34.99,38.402,37.73,40.623000000000005
32.086,36.989000000000004,34.986999999999995,38.306999999999995,37.552,40.488
32.073,36.891,34.99,38.216,37.376999999999995,40.358000000000004
32.061,36.791,34.998000000000005,38.128,37.204,40.231
32.05,36.69,35.01,38.044000000000004,37.034,40.107
32.038000000000004,36.586999999999996,35.024,37.964,36.866,39.985
32.028,36.483000000000004,35.041,37.885999999999996,36.699,39.864000000000004
32.018,36.379,35.06,37.811,36.536,39.745
32.009,36.274,35.080999999999996,37.735,36.375,39.626999999999995
32.0,36.169000000000004,35.105,37.66,36.218,39.508
31.991999999999997,36.065,35.13,37.585,36.066,39.388000000000005
31.984,35.961,35.158,37.510999999999996,35.92,39.264
31.976,35.859,35.188,37.437,35.784,39.135999999999996
31.969,35.759,35.218,37.365,35.659,39.005
31.961,35.662,35.25,37.295,35.547,38.87
31.953000000000003,35.567,35.28,37.228,35.449,38.733000000000004
31.945,35.474000000000004,35.31,37.166,35.366,38.596
31.936,35.382,35.338,37.108000000000004,35.301,38.461
31.927,35.291,35.365,37.055,35.253,38.329
31.916999999999998,35.201,35.39,37.009,35.224000000000004,38.202
31.906999999999996,35.111999999999995,35.413000000000004,36.968,35.213,38.080999999999996
31.896,35.025,35.433,36.934,35.22,37.967
31.885,34.94,35.45,36.905,35.245,37.863
31.872,34.856,35.461,36.883,35.286,37.771
31.859,34.774,35.467,36.868,35.344,37.69
31.843000000000004,34.693000000000005,35.468,36.86,35.416,37.623000000000005
31.825,34.616,35.465,36.857,35.503,37.568000000000005
31.803,34.542,35.46,36.86,35.602,37.525999999999996
31.778000000000002,34.471,35.452,36.868,35.711999999999996,37.497
31.749000000000002,34.405,35.444,36.881,35.834,37.479
31.718000000000004,34.342,35.435,36.9,35.968,37.47
31.684,34.283,35.425,36.923,36.111,37.471
31.651,34.227,35.417,36.95,36.262,37.48
31.616999999999997,34.173,35.409,36.98,36.417,37.494
31.585,34.121,35.402,37.013000000000005,36.573,37.514
31.553,34.07,35.394,37.047,36.727,37.538000000000004
31.524,34.02,35.387,37.082,36.876999999999995,37.563
31.497,33.97,35.379,37.115,37.02,37.589
31.475,33.919000000000004,35.372,37.147,37.154,37.614000000000004
31.456,33.867,35.365,37.176,37.28,37.635999999999996
31.441,33.816,35.357,37.203,37.394,37.655
31.430999999999997,33.763000000000005,35.349000000000004,37.226,37.498000000000005,37.669000000000004
31.425,33.711,35.34,37.244,37.589,37.678000000000004
31.423000000000002,33.658,35.33,37.259,37.67,37.68
31.425,33.605,35.319,37.268,37.739000000000004,37.674
31.430999999999997,33.552,35.306,37.272,37.797,37.661
31.441,33.499,35.293,37.269,37.844,37.64
31.458000000000002,33.446999999999996,35.279,37.260999999999996,37.878,37.613
31.483,33.397,35.263000000000005,37.246,37.9,37.58
31.517,33.348,35.246,37.225,37.909,37.542
31.564,33.301,35.227,37.196999999999996,37.905,37.499
31.628,33.256,35.205,37.161,37.888000000000005,37.45
31.715,33.214,35.181,37.119,37.858000000000004,37.396
31.828000000000003,33.173,35.156,37.07,37.813,37.338
31.971999999999998,33.135,35.128,37.016,37.751999999999995,37.275999999999996
32.150999999999996,33.1,35.098,36.955,37.677,37.209
32.37,33.069,35.067,36.889,37.586,37.138000000000005
32.63,33.04,35.035,36.817,37.48,37.061
32.935,33.016,35.001999999999995,36.742,37.36,36.978
33.287,32.994,34.97,36.663000000000004,37.228,36.891
33.687,32.975,34.938,36.583,37.085,36.799
34.135,32.958,34.907,36.501,36.931999999999995,36.703
34.628,32.943000000000005,34.876999999999995,36.419000000000004,36.773,36.603
35.163000000000004,32.929,34.847,36.336,36.607,36.499
35.732,32.915,34.819,36.251999999999995,36.437,36.391
36.329,32.902,34.791,36.167,36.265,36.279
36.943000000000005,32.889,34.765,36.082,36.092,36.162
37.563,32.874,34.739000000000004,35.996,35.919000000000004,36.04
38.179,32.86,34.713,35.911,35.749,35.911
38.78,32.844,34.687,35.826,35.582,35.775
39.356,32.829,34.662,35.743,35.419000000000004,35.633
39.897,32.812,34.638000000000005,35.661,35.260999999999996,35.485
40.398,32.795,34.614000000000004,35.580999999999996,35.107,35.334
40.851,32.777,34.59,35.501,34.96,35.181
41.251999999999995,32.759,34.566,35.423,34.818000000000005,35.025999999999996
41.598,32.742,34.544000000000004,35.346,34.683,34.869
41.887,32.726,34.521,35.269,34.555,34.711
42.121,32.711,34.499,35.192,34.431999999999995,34.553000000000004
42.302,32.696999999999996,34.476,35.115,34.314,34.396
42.431000000000004,32.683,34.452,35.037,34.2,34.24
42.513999999999996,32.668,34.427,34.959,34.09,34.088
42.555,32.654,34.398,34.88,33.984,33.94
42.556999999999995,32.64,34.367,34.801,33.882,33.797
42.523999999999994,32.625,34.332,34.721,33.784,33.66
42.46,32.609,34.294000000000004,34.641999999999996,33.691,33.528
42.37,32.592,34.255,34.563,33.603,33.404
42.261,32.574,34.215,34.486,33.522,33.286
42.135,32.554,34.177,34.41,33.448,33.177
41.998000000000005,32.533,34.143,34.338,33.381,33.076
41.854,32.509,34.115,34.268,33.321999999999996,32.984
41.707,32.483000000000004,34.096,34.202,33.271,32.899
41.558,32.455,34.089,34.138000000000005,33.227,32.82
41.411,32.423,34.098,34.078,33.19,32.745
41.266000000000005,32.384,34.126,34.022,33.158,32.674
41.123999999999995,32.334,34.176,33.968,33.131,32.606
40.985,32.274,34.248000000000005,33.918,33.107,32.541
40.85,32.207,34.343,33.871,33.086,32.48
40.717,32.135,34.464,33.829,33.067,32.422
40.588,32.062,34.611,33.79,33.049,32.367
40.46,31.988000000000003,34.785,33.754,33.033,32.315
40.332,31.916999999999998,34.986,33.72,33.018,32.269
40.205,31.85,35.211,33.689,33.004,32.226
40.078,31.79,35.457,33.662,32.99,32.189
39.95,31.736,35.722,33.638000000000005,32.974000000000004,32.157
39.821,31.689,36.0,33.616,32.955999999999996,32.131
39.692,31.649,36.287,33.596,32.936,32.111
39.563,31.616999999999997,36.578,33.578,32.915,32.098
39.434,31.590999999999998,36.867,33.561,32.893,32.091
39.305,31.572,37.149,33.544000000000004,32.871,32.09
39.178000000000004,31.558000000000003,37.421,33.529,32.848,32.094
39.051,31.55,37.677,33.513000000000005,32.827,32.105
38.926,31.548000000000002,37.917,33.498000000000005,32.806,32.12
38.803000000000004,31.555999999999997,38.137,33.483000000000004,32.786,32.14
38.681,31.574,38.336,33.468,32.766999999999996,32.162
38.559,31.609,38.514,33.451,32.747,32.183
38.439,31.664,38.67,33.431999999999995,32.727,32.203
38.32,31.746,38.802,33.413000000000004,32.707,32.22
38.203,31.862,38.911,33.393,32.687,32.233000000000004
38.089,32.019,38.998000000000005,33.373000000000005,32.669000000000004,32.243
37.977,32.225,39.062,33.353,32.653,32.25
37.87,32.483000000000004,39.106,33.334,32.64,32.253
37.766999999999996,32.801,39.131,33.315,32.632,32.253
37.67,33.178000000000004,39.14,33.297,32.628,32.25
37.58,33.617,39.135,33.281,32.628,32.244
37.498000000000005,34.113,39.119,33.266,32.63,32.235
37.424,34.66,39.093,33.251999999999995,32.632,32.222
37.36,35.251,39.059,33.239000000000004,32.632,32.205
37.306999999999995,35.875,39.018,33.225,32.628,32.185
37.266,36.519,38.973,33.21,32.62,32.161
37.238,37.17,38.925,33.193000000000005,32.605,32.134
37.223,37.815,38.875,33.175,32.585,32.104
37.223,38.441,38.823,33.155,32.558,32.071
37.238,39.035,38.771,33.134,32.525,32.037
37.269,39.588,38.72,33.113,32.488,32.003
37.316,40.089,38.672,33.092,32.446999999999996,31.97
37.376999999999995,40.533,38.626999999999995,33.071,32.403,31.94
37.453,40.916,38.586,33.049,32.357,31.912
37.542,41.235,38.549,33.027,32.309,31.889
37.643,41.49100000000001,38.516999999999996,33.004,32.258,31.868000000000002
37.753,41.685,38.489000000000004,32.981,32.205,31.851999999999997
37.87,41.821999999999996,38.466,32.955999999999996,32.152,31.84
37.994,41.906000000000006,38.445,32.931,32.099000000000004,31.831999999999997
38.122,41.943000000000005,38.427,32.905,32.049,31.826
38.251,41.938,38.409,32.878,32.001999999999995,31.823
38.379,41.898999999999994,38.391,32.85,31.959,31.822
38.504,41.831,38.373000000000005,32.823,31.921999999999997,31.822
38.622,41.74,38.353,32.795,31.889,31.822
38.732,41.629,38.333,32.768,31.861,31.82
38.83,41.505,38.311,32.74,31.84,31.818
38.914,41.371,38.287,32.713,31.823,31.814
38.982,41.23,38.26,32.687,31.811999999999998,31.808000000000003
39.034,41.085,38.23,32.66,31.807,31.798000000000002
39.069,40.938,38.196,32.632,31.808000000000003,31.784000000000002
39.086,40.79,38.158,32.603,31.814,31.764
39.085,40.64,38.115,32.571,31.826,31.739
39.067,40.488,38.067,32.539,31.840999999999998,31.71
39.031,40.334,38.015,32.505,31.86,31.678
38.978,40.177,37.957,32.47,31.88,31.644000000000002
38.908,40.016999999999996,37.896,32.433,31.9,31.609
38.823,39.85,37.832,32.395,31.92,31.573
38.724000000000004,39.676,37.766,32.356,31.938000000000002,31.537
38.609,39.497,37.699,32.317,31.954,31.500999999999998
38.481,39.316,37.631,32.278,31.968000000000004,31.464000000000002
38.338,39.134,37.565,32.24,31.979,31.427
38.183,38.953,37.5,32.203,31.986,31.39
38.014,38.775999999999996,37.436,32.167,31.989,31.351999999999997
37.833,38.604,37.373000000000005,32.133,31.986,31.311999999999998
37.64,38.438,37.31,32.1,31.976999999999997,31.27
37.438,38.28,37.248000000000005,32.069,31.962,31.226
37.226,38.131,37.188,32.039,31.941,31.18
37.007,37.991,37.131,32.012,31.913,31.131999999999998
36.783,37.858000000000004,37.078,31.987,31.877,31.083000000000002
36.555,37.733000000000004,37.031,31.965,31.836,31.035
36.326,37.613,36.991,31.945,31.79,30.988000000000003
36.095,37.497,36.957,31.927,31.739,30.943
35.866,37.383,36.931,31.910999999999998,31.683000000000003,30.9
35.64,37.271,36.911,31.896,31.622,30.859
35.419000000000004,37.158,36.899,31.879,31.558000000000003,30.818
35.205999999999996,37.043,36.891999999999996,31.854,31.49,30.778000000000002
35.004,36.925,36.891999999999996,31.816,31.418000000000003,30.737
34.816,36.803000000000004,36.897,31.768,31.344,30.695999999999998
34.643,36.678000000000004,36.907,31.712,31.267,30.655
34.486999999999995,36.55,36.92,31.653000000000002,31.19,30.611
34.348,36.42,36.936,31.593000000000004,31.113000000000003,30.566
34.225,36.291,36.953,31.537,31.038,30.518
34.119,36.164,36.971,31.487,30.965999999999998,30.467
34.027,36.041,36.988,31.447,30.899,30.414
33.948,35.925,37.001999999999995,31.416999999999998,30.837,30.359
33.879,35.817,37.014,31.398000000000003,30.783,30.305
33.818000000000005,35.72,37.023,31.389,30.736,30.25
33.763000000000005,35.635,37.029,31.389,30.699,30.197
33.711,35.564,37.032,31.396,30.67,30.144000000000002
33.662,35.508,37.034,31.408,30.65,30.093000000000004
33.613,35.468,37.033,31.421999999999997,30.638,30.043000000000003
33.565,35.445,37.03,31.438000000000002,30.631999999999998,29.994
33.516999999999996,35.44,37.024,31.453000000000003,30.631999999999998,29.948
33.471,35.451,37.014,31.468000000000004,30.636,29.903000000000002
33.425,35.476,37.001,31.482,30.643,29.862
33.382,35.514,36.982,31.494,30.653000000000002,29.823
33.342,35.563,36.958,31.505,30.664,29.787
33.304,35.621,36.93,31.513,30.677,29.753
33.27,35.687,36.898,31.52,30.693,29.721
33.239000000000004,35.76,36.861999999999995,31.526,30.715999999999998,29.691999999999997
33.211,35.838,36.824,31.531999999999996,30.75,29.664
33.184,35.921,36.783,31.54,30.8,29.638
33.16,36.008,36.741,31.552,30.872,29.612
33.137,36.096,36.698,31.573,30.976,29.586
33.116,36.186,36.653,31.607,31.12,29.559
33.097,36.275999999999996,36.607,31.659000000000002,31.315,29.53
33.079,36.365,36.559,31.737,31.568,29.5
33.064,36.452,36.510999999999996,31.846,31.888,29.469
33.052,36.535,36.464,31.994,32.281,29.436999999999998
33.042,36.614000000000004,36.416,32.187,32.75,29.405
33.036,36.687,36.369,32.43,33.297,29.374000000000002
33.033,36.751999999999995,36.321999999999996,32.725,33.919000000000004,29.346
33.035,36.81,36.277,33.074,34.608000000000004,29.324
33.042,36.858000000000004,36.233000000000004,33.473,35.356,29.311999999999998
33.053000000000004,36.899,36.189,33.918,36.149,29.315
33.068000000000005,36.93,36.147,34.402,36.973,29.339000000000002
33.088,36.951,36.104,34.919000000000004,37.81,29.391
33.113,36.963,36.062,35.457,38.645,29.478
33.143,36.966,36.018,36.005,39.46,29.61
33.178000000000004,36.96,35.972,36.552,40.24,29.794
33.217,36.946,35.925,37.086999999999996,40.973,30.037
33.260999999999996,36.923,35.876,37.601,41.647,30.348000000000003
33.308,36.891,35.826,38.084,42.254,30.730999999999998
33.357,36.851,35.775,38.528,42.79,31.189
33.408,36.803000000000004,35.724000000000004,38.929,43.251999999999995,31.724
33.459,36.748000000000005,35.67,39.282,43.64,32.334
33.509,36.685,35.616,39.585,43.95399999999999,33.013000000000005
33.555,36.616,35.56,39.838,44.198,33.751
33.598,36.542,35.504,40.04,44.376000000000005,34.539
33.634,36.463,35.448,40.193000000000005,44.493,35.361999999999995
33.665,36.379,35.394,40.301,44.556999999999995,36.205999999999996
33.689,36.291,35.34,40.366,44.575,37.056
33.705,36.198,35.288000000000004,40.394,44.553000000000004,37.896
33.714,36.102,35.238,40.388000000000005,44.498999999999995,38.709
33.714,36.001,35.191,40.353,44.419,39.483000000000004
33.707,35.896,35.146,40.295,44.318999999999996,40.204
33.692,35.786,35.104,40.216,44.202,40.861999999999995
33.67,35.673,35.064,40.122,44.073,41.451
33.64,35.556999999999995,35.027,40.016,43.935,41.964
33.603,35.437,34.994,39.9,43.788999999999994,42.402
33.561,35.315,34.963,39.778,43.636,42.766000000000005
33.515,35.192,34.934,39.650999999999996,43.476000000000006,43.059
33.466,35.068000000000005,34.909,39.52,43.309,43.285
33.415,34.943000000000005,34.885999999999996,39.387,43.136,43.45
33.364000000000004,34.819,34.865,39.251999999999995,42.957,43.559
33.313,34.696,34.844,39.115,42.773,43.62
33.264,34.575,34.824,38.975,42.585,43.638999999999996
33.218,34.458,34.802,38.833,42.391000000000005,43.623999999999995
33.174,34.345,34.78,38.688,42.193999999999996,43.58
33.133,34.235,34.757,38.54,41.992,43.513000000000005
33.096,34.131,34.734,38.389,41.788000000000004,43.428000000000004
33.064,34.03,34.709,38.236,41.581,43.32899999999999
33.036,33.935,34.684,38.08,41.373000000000005,43.218999999999994
33.014,33.843,34.659,37.921,41.166000000000004,43.101000000000006
32.998000000000005,33.755,34.635,37.762,40.96,42.977
32.989000000000004,33.671,34.61,37.603,40.756,42.849
32.985,33.592,34.585,37.446,40.556999999999995,42.718
32.989000000000004,33.516,34.561,37.291,40.364000000000004,42.583
32.999,33.445,34.536,37.141999999999996,40.177,42.443000000000005
33.016,33.376999999999995,34.512,36.997,39.998000000000005,42.298
33.04,33.313,34.488,36.858000000000004,39.827,42.147
33.068000000000005,33.251999999999995,34.465,36.723,39.663000000000004,41.99
33.101,33.194,34.442,36.594,39.507,41.826
33.137,33.139,34.42,36.468,39.357,41.656000000000006
33.175,33.086999999999996,34.398,36.348,39.214,41.481
33.215,33.038000000000004,34.376,36.23,39.075,41.302
33.256,32.992,34.353,36.115,38.94,41.118
33.298,32.949,34.330999999999996,36.001,38.808,40.929
33.341,32.909,34.306999999999995,35.885999999999996,38.679,40.736
33.385,32.872,34.282,35.77,38.552,40.539
33.43,32.836999999999996,34.256,35.652,38.427,40.34
33.474000000000004,32.805,34.228,35.531,38.304,40.141
33.518,32.775999999999996,34.199,35.41,38.183,39.944
33.561,32.747,34.171,35.288000000000004,38.064,39.749
33.604,32.72,34.143,35.166,37.946999999999996,39.556999999999995
33.644,32.695,34.116,35.045,37.832,39.37
33.683,32.67,34.091,34.926,37.721,39.187
33.719,32.647,34.066,34.808,37.614000000000004,39.009
33.751999999999995,32.625,34.042,34.694,37.512,38.835
33.781,32.604,34.018,34.584,37.414,38.665
33.804,32.584,33.993,34.481,37.323,38.499
33.819,32.566,33.967,34.385999999999996,37.238,38.336999999999996
33.825,32.548,33.938,34.3,37.162,38.178000000000004
33.819,32.531,33.908,34.223,37.093,38.021
33.801,32.515,33.876999999999995,34.157,37.034,37.865
33.768,32.5,33.845,34.102,36.984,37.711
33.723,32.484,33.814,34.06,36.944,37.558
33.664,32.468,33.783,34.031,36.915,37.407
33.593,32.453,33.751999999999995,34.015,36.898,37.258
33.51,32.44,33.722,34.013000000000005,36.895,37.114000000000004
33.418,32.427,33.694,34.025999999999996,36.905,36.975
33.32,32.415,33.67,34.053000000000004,36.929,36.842
33.218,32.404,33.65,34.094,36.965,36.717
33.114000000000004,32.395,33.634,34.147,37.012,36.599000000000004
33.010999999999996,32.387,33.623000000000005,34.211,37.068000000000005,36.491
32.911,32.38,33.616,34.284,37.132,36.394
32.817,32.374,33.611999999999995,34.364000000000004,37.201,36.312
32.73,32.368,33.611,34.45,37.273,36.243
32.65,32.361999999999995,33.611,34.54,37.348,36.191
32.579,32.358000000000004,33.611999999999995,34.632,37.422,36.154
32.515,32.354,33.613,34.724000000000004,37.495,36.133
32.46,32.35,33.613,34.814,37.564,36.128
32.411,32.346,33.611,34.900999999999996,37.626999999999995,36.139
32.369,32.341,33.605,34.984,37.685,36.166
32.334,32.334,33.595,35.062,37.736,36.205999999999996
32.304,32.326,33.582,35.134,37.781,36.26
32.278,32.314,33.566,35.2,37.819,36.324
32.254,32.3,33.548,35.260999999999996,37.85,36.4
32.232,32.282,33.529,35.317,37.874,36.484
32.209,32.263000000000005,33.508,35.369,37.889,36.576
32.185,32.242,33.486999999999995,35.416,37.897,36.674
32.159,32.22,33.466,35.459,37.898,36.775
32.13,32.198,33.446,35.498000000000005,37.891999999999996,36.879
32.098,32.178000000000004,33.427,35.532,37.878,36.983000000000004
32.063,32.158,33.41,35.56,37.859,37.086999999999996
32.024,32.14,33.397,35.583,37.833,37.188
31.984,32.123000000000005,33.39,35.599000000000004,37.801,37.283
31.941999999999997,32.108000000000004,33.388000000000005,35.609,37.763000000000005,37.372
31.901,32.094,33.391,35.611999999999995,37.718,37.452
31.862,32.083,33.400999999999996,35.607,37.667,37.523
31.826999999999998,32.073,33.415,35.594,37.61,37.585
31.798000000000002,32.065,33.433,35.573,37.547,37.638000000000005
31.776999999999997,32.059,33.454,35.545,37.478,37.68
31.767,32.054,33.477,35.512,37.403,37.711
31.77,32.05,33.503,35.476,37.321999999999996,37.73
31.793000000000003,32.046,33.53,35.439,37.236,37.736
31.838,32.041,33.561,35.406,37.145,37.729
31.912,32.034,33.596,35.376999999999995,37.05,37.71
32.021,32.023,33.635999999999996,35.354,36.951,37.679
32.171,32.008,33.683,35.336,36.847,37.638000000000005
32.367,31.99,33.74,35.321999999999996,36.736999999999995,37.586
32.615,31.968000000000004,33.81,35.313,36.623000000000005,37.524
32.919000000000004,31.944000000000003,33.895,35.306,36.503,37.452
33.283,31.916,33.998000000000005,35.3,36.38,37.369
33.707,31.886,34.12,35.293,36.253,37.277
34.189,31.853,34.263000000000005,35.285,36.122,37.174
34.726,31.816999999999997,34.427,35.274,35.986999999999995,37.062
35.31,31.778000000000002,34.611999999999995,35.258,35.848,36.941
35.934,31.736,34.817,35.236999999999995,35.705,36.813
36.586,31.691999999999997,35.037,35.21,35.561,36.677
37.255,31.646,35.269,35.178000000000004,35.414,36.535
37.929,31.599,35.509,35.14,35.268,36.388000000000005
38.593,31.553,35.753,35.097,35.122,36.236
39.235,31.509,35.996,35.051,34.978,36.080999999999996
39.842,31.467,36.234,35.003,34.836999999999996,35.924
40.402,31.428,36.464,34.952,34.7,35.765
40.907,31.392,36.681999999999995,34.900999999999996,34.568000000000005,35.605
41.351000000000006,31.358,36.885999999999996,34.85,34.442,35.444
41.73,31.326999999999998,37.071999999999996,34.801,34.321999999999996,35.282
42.042,31.298000000000002,37.238,34.753,34.208,35.12
42.288999999999994,31.272,37.382,34.709,34.102,34.958
42.472,31.25,37.503,34.669000000000004,34.004,34.799
42.596000000000004,31.233,37.6,34.632,33.912,34.643
42.665,31.223000000000003,37.673,34.599000000000004,33.827,34.493
42.68600000000001,31.221,37.724000000000004,34.569,33.747,34.348
42.666000000000004,31.230999999999998,37.754,34.541,33.672,34.208
42.611999999999995,31.254,37.765,34.514,33.601,34.073
42.532,31.298000000000002,37.76,34.489000000000004,33.533,33.942
42.431000000000004,31.366,37.743,34.464,33.468,33.814
42.315,31.465999999999998,37.716,34.439,33.406,33.689
42.18899999999999,31.605999999999998,37.681,34.413000000000004,33.346,33.565
42.056000000000004,31.793000000000003,37.639,34.385999999999996,33.287,33.442
41.919,32.036,37.591,34.358000000000004,33.23,33.32
41.78,32.342,37.539,34.328,33.173,33.199
41.643,32.713,37.482,34.298,33.118,33.079
41.506,33.152,37.422,34.265,33.064,32.96
41.371,33.655,37.359,34.232,33.013000000000005,32.841
41.238,34.219,37.294000000000004,34.196,32.965,32.725
41.107,34.834,37.227,34.158,32.92,32.611
40.978,35.492,37.16,34.12,32.881,32.5
40.85,36.178000000000004,37.093,34.080999999999996,32.847,32.393
40.724000000000004,36.878,37.027,34.042,32.818000000000005,32.29
40.599000000000004,37.577,36.963,34.003,32.792,32.191
40.475,38.263000000000005,36.900999999999996,33.964,32.769,32.099000000000004
40.354,38.92,36.842,33.927,32.75,32.013000000000005
40.234,39.539,36.787,33.891,32.734,31.935
40.115,40.108000000000004,36.734,33.857,32.72,31.865
40.0,40.621,36.684,33.826,32.707,31.803
39.887,41.068999999999996,36.637,33.796,32.696,31.748
39.778,41.45,36.592,33.769,32.687,31.7
39.672,41.761,36.551,33.742,32.68,31.658
39.569,42.004,36.513000000000005,33.716,32.675,31.62
39.469,42.181000000000004,36.478,33.691,32.672,31.586
39.372,42.297,36.443000000000005,33.665,32.669000000000004,31.557
39.275,42.358000000000004,36.408,33.64,32.667,31.531999999999996
39.179,42.371,36.372,33.615,32.664,31.511
39.083,42.342,36.332,33.591,32.66,31.493000000000002
38.986,42.278,36.289,33.567,32.653,31.479
38.888000000000005,42.184,36.243,33.544000000000004,32.644,31.467
38.789,42.068000000000005,36.194,33.522,32.632,31.458000000000002
38.688,41.934,36.143,33.5,32.618,31.453000000000003
38.585,41.787,36.092,33.479,32.601,31.451
38.482,41.63,36.041,33.459,32.582,31.453000000000003
38.376999999999995,41.468,35.991,33.439,32.563,31.456999999999997
38.27,41.302,35.942,33.418,32.544000000000004,31.463
38.162,41.13399999999999,35.893,33.398,32.527,31.47
38.051,40.965,35.844,33.375,32.510999999999996,31.478
37.938,40.797,35.795,33.351,32.495,31.487
37.823,40.63,35.746,33.324,32.48,31.496
37.707,40.464,35.698,33.294000000000004,32.464,31.506
37.592,40.302,35.650999999999996,33.259,32.448,31.515
37.478,40.143,35.606,33.22,32.431,31.524
37.367,39.988,35.565,33.178000000000004,32.412,31.533
37.26,39.836999999999996,35.527,33.133,32.391999999999996,31.541
37.158,39.691,35.494,33.086,32.37,31.546999999999997
37.06,39.548,35.464,33.035,32.346,31.553
36.968,39.409,35.438,32.983000000000004,32.321,31.557
36.883,39.274,35.417,32.928000000000004,32.293,31.561999999999998
36.808,39.143,35.400999999999996,32.87,32.264,31.566999999999997
36.745,39.014,35.389,32.811,32.233000000000004,31.570999999999998
36.696,38.889,35.382,32.749,32.201,31.574
36.66,38.766,35.38,32.687,32.169000000000004,31.576999999999998
36.64,38.647,35.383,32.624,32.138000000000005,31.581
36.635,38.532,35.391,32.561,32.108000000000004,31.585
36.646,38.42,35.403,32.496,32.080999999999996,31.590999999999998
36.67,38.311,35.417,32.431,32.056,31.598000000000003
36.709,38.205999999999996,35.435,32.365,32.032,31.607
36.762,38.103,35.455,32.297,32.01,31.616999999999997
36.827,38.001999999999995,35.478,32.226,31.989,31.628
36.902,37.900999999999996,35.503,32.152,31.968000000000004,31.639
36.984,37.8,35.53,32.075,31.948,31.648000000000003
37.071,37.699,35.558,31.995,31.926,31.656
37.16,37.597,35.583,31.913,31.904,31.662
37.248000000000005,37.494,35.606,31.828000000000003,31.881,31.666
37.334,37.39,35.626,31.743000000000002,31.855999999999998,31.666999999999998
37.416,37.286,35.641999999999996,31.656999999999996,31.831,31.664
37.494,37.181,35.654,31.57,31.805,31.658
37.567,37.077,35.664,31.486,31.776999999999997,31.649
37.635,36.975,35.672,31.404,31.749000000000002,31.639
37.696999999999996,36.875,35.678000000000004,31.326,31.72,31.627
37.751999999999995,36.78,35.681,31.252,31.691999999999997,31.615
37.8,36.693000000000005,35.683,31.183000000000003,31.664,31.601999999999997
37.839,36.616,35.683,31.119,31.636,31.588
37.868,36.551,35.681,31.059,31.609,31.573
37.885999999999996,36.5,35.678000000000004,31.004,31.581999999999997,31.557
37.893,36.463,35.674,30.951,31.555999999999997,31.539
37.89,36.441,35.669000000000004,30.901,31.53,31.518
37.875,36.435,35.662,30.855,31.505,31.494
37.849000000000004,36.443000000000005,35.653,30.811999999999998,31.480999999999998,31.468000000000004
37.811,36.465,35.641,30.771,31.456,31.438000000000002
37.760999999999996,36.499,35.626,30.732,31.432,31.405
37.696999999999996,36.543,35.606,30.694000000000003,31.408,31.368000000000002
37.621,36.595,35.582,30.658,31.384,31.329
37.532,36.654,35.553000000000004,30.623,31.36,31.287
37.433,36.716,35.52,30.589000000000002,31.335,31.243000000000002
37.325,36.78,35.483000000000004,30.555,31.31,31.198
37.21,36.843,35.444,30.522,31.284000000000002,31.151
37.089,36.904,35.404,30.489,31.256,31.103
36.965,36.961,35.361999999999995,30.456,31.226,31.051
36.84,37.013000000000005,35.32,30.423000000000002,31.195,30.997
36.714,37.058,35.278,30.39,31.160999999999998,30.941999999999997
36.59,37.096,35.235,30.355,31.124000000000002,30.885
36.468,37.126999999999995,35.192,30.318,31.085,30.828000000000003
36.348,37.149,35.149,30.28,31.044,30.771
36.232,37.164,35.105,30.241999999999997,31.0,30.715999999999998
36.117,37.17,35.062,30.203000000000003,30.954,30.663
36.006,37.168,35.019,30.164,30.906999999999996,30.611
35.896,37.158,34.976,30.127,30.86,30.561
35.787,37.139,34.933,30.092,30.813000000000002,30.513
35.68,37.113,34.89,30.06,30.768,30.465999999999998
35.571999999999996,37.08,34.848,30.031,30.726999999999997,30.42
35.465,37.041,34.806,30.006,30.689,30.375999999999998
35.358000000000004,36.997,34.766,29.985,30.656999999999996,30.334
35.249,36.949,34.727,29.969,30.63,30.291999999999998
35.14,36.897,34.689,29.961,30.607,30.253
35.03,36.841,34.652,29.961,30.587,30.219
34.92,36.78,34.616,29.975,30.572,30.191999999999997
34.81,36.715,34.580999999999996,30.005,30.558000000000003,30.179000000000002
34.7,36.645,34.546,30.059,30.546999999999997,30.184
34.593,36.57,34.510999999999996,30.14,30.537,30.215
34.488,36.489000000000004,34.477,30.255,30.526,30.28
34.385999999999996,36.405,34.442,30.409000000000002,30.515,30.388
34.288000000000004,36.316,34.407,30.605999999999998,30.503,30.546
34.196,36.223,34.373000000000005,30.851999999999997,30.49,30.764
34.109,36.126999999999995,34.339,31.15,30.48,31.049
34.028,36.027,34.305,31.502,30.473000000000003,31.406999999999996
33.952,35.923,34.272,31.906999999999996,30.476,31.842
33.881,35.818000000000005,34.239000000000004,32.361999999999995,30.493000000000002,32.357
33.816,35.711,34.205999999999996,32.861999999999995,30.531999999999996,32.949
33.755,35.602,34.175,33.397,30.601,33.613
33.7,35.493,34.146,33.961,30.709,34.336
33.648,35.383,34.119,34.542,30.865,35.109
33.599000000000004,35.273,34.093,35.13,31.078000000000003,35.915
33.552,35.162,34.069,35.714,31.355,36.741
33.506,35.051,34.048,36.282,31.703000000000003,37.569
33.461999999999996,34.939,34.028,36.825,32.124,38.384
33.418,34.827,34.013000000000005,37.333,32.621,39.17
33.375,34.714,34.007,37.8,33.19,39.915
33.332,34.601,34.010999999999996,38.22,33.825,40.606
33.289,34.486999999999995,34.022,38.589,34.516999999999996,41.238
33.243,34.375,34.04,38.905,35.253,41.805
33.195,34.264,34.06,39.169000000000004,36.019,42.303999999999995
33.144,34.155,34.080999999999996,39.381,36.798,42.736999999999995
33.088,34.048,34.099000000000004,39.547,37.571999999999996,43.104
33.028,33.944,34.111,39.67,38.327,43.409
32.964,33.844,34.117,39.753,39.048,43.655
32.897,33.748000000000005,34.115,39.802,39.72,43.848
32.828,33.656,34.106,39.821999999999996,40.335,43.99100000000001
32.759,33.57,34.088,39.816,40.883,44.091
32.69,33.49,34.065,39.79,41.361000000000004,44.155
32.624,33.417,34.036,39.745,41.763999999999996,44.18899999999999
32.56,33.349000000000004,34.003,39.686,42.093999999999994,44.199
32.5,33.289,33.967,39.614000000000004,42.351000000000006,44.188
32.446,33.236,33.931,39.53,42.538999999999994,44.162
32.396,33.191,33.894,39.437,42.665,44.121
32.352,33.152,33.857,39.336999999999996,42.733999999999995,44.068000000000005
32.312,33.119,33.82,39.232,42.755,44.004
32.275999999999996,33.09,33.784,39.123000000000005,42.733000000000004,43.931000000000004
32.243,33.066,33.749,39.01,42.677,43.849
32.214,33.045,33.716,38.895,42.593999999999994,43.75899999999999
32.187,33.027,33.684,38.778,42.49,43.662
32.163000000000004,33.01,33.655,38.66,42.372,43.556999999999995
32.141,32.994,33.628,38.54,42.243,43.442
32.12,32.979,33.604,38.421,42.107,43.318000000000005
32.099000000000004,32.964,33.582,38.302,41.966,43.183
32.079,32.949,33.563,38.183,41.821999999999996,43.038000000000004
32.059,32.934,33.547,38.066,41.676,42.883
32.041,32.919000000000004,33.534,37.95,41.53,42.718999999999994
32.022,32.903,33.522,37.835,41.38399999999999,42.54600000000001
32.004,32.887,33.513000000000005,37.722,41.238,42.36600000000001
31.987,32.87,33.504,37.611,41.091,42.18
31.971,32.852,33.496,37.501999999999995,40.943000000000005,41.989
31.955,32.836,33.486999999999995,37.393,40.793,41.79600000000001
31.941,32.82,33.478,37.285,40.64,41.603
31.928,32.806,33.468,37.177,40.484,41.413000000000004
31.916,32.793,33.459,37.07,40.326,41.226000000000006
31.904,32.78,33.449,36.961999999999996,40.165,41.04600000000001
31.892,32.768,33.439,36.854,40.003,40.871
31.88,32.754,33.428000000000004,36.746,39.839,40.703
31.866999999999997,32.738,33.415,36.635,39.675,40.54
31.854,32.719,33.399,36.522,39.510999999999996,40.383
31.839000000000002,32.698,33.38,36.406,39.348,40.232
31.824,32.672,33.356,36.287,39.189,40.085
31.808000000000003,32.643,33.328,36.165,39.032,39.944
31.791999999999998,32.61,33.297,36.04,38.881,39.808
31.776999999999997,32.571999999999996,33.264,35.913000000000004,38.735,39.675
31.761999999999997,32.529,33.231,35.782,38.596,39.546
31.748,32.481,33.199,35.65,38.463,39.418
31.736,32.429,33.167,35.516999999999996,38.336,39.291
31.725,32.371,33.137,35.384,38.215,39.164
31.715,32.31,33.108000000000004,35.254,38.098,39.039
31.706999999999997,32.246,33.08,35.13,37.983000000000004,38.913000000000004
31.699,32.181,33.055,35.015,37.87,38.789
31.691,32.116,33.032,34.909,37.758,38.666
31.682,32.053000000000004,33.013000000000005,34.815,37.645,38.543
31.671999999999997,31.995,32.997,34.734,37.532,38.422
31.662,31.943,32.984,34.668,37.417,38.303000000000004
31.65,31.897,32.974000000000004,34.617,37.302,38.187
31.638,31.859,32.967,34.580999999999996,37.187,38.074
31.624000000000002,31.828000000000003,32.96,34.561,37.073,37.967
31.61,31.803,32.954,34.556,36.96,37.866
31.596999999999998,31.785,32.946,34.567,36.847,37.771
31.583000000000002,31.772,32.938,34.59,36.736,37.684
31.568,31.764,32.93,34.626,36.626999999999995,37.604
31.552,31.758000000000003,32.92,34.671,36.521,37.531
31.537,31.755,32.91,34.725,36.419000000000004,37.467
31.521,31.752,32.899,34.785,36.323,37.413000000000004
31.505,31.75,32.888000000000005,34.849000000000004,36.233000000000004,37.368
31.489,31.747,32.878,34.917,36.15,37.334
31.473000000000003,31.743000000000002,32.868,34.986999999999995,36.075,37.312
31.458000000000002,31.737,32.86,35.056,36.01,37.301
31.441999999999997,31.729,32.856,35.124,35.955,37.301
31.426,31.72,32.858000000000004,35.189,35.913000000000004,37.311
31.410999999999998,31.71,32.87,35.247,35.885,37.332
31.397,31.699,32.894,35.3,35.872,37.361999999999995
31.385,31.688000000000002,32.935,35.344,35.872,37.4
31.374000000000002,31.675,32.995,35.38,35.885,37.446
31.366,31.663,33.077,35.408,35.911,37.499
31.361,31.65,33.181,35.426,35.946999999999996,37.558
31.359,31.639,33.306999999999995,35.435,35.994,37.62
31.36,31.628,33.457,35.436,36.049,37.684
31.365,31.619,33.629,35.428000000000004,36.111,37.748000000000005
31.374000000000002,31.611,33.821999999999996,35.412,36.177,37.809
31.386999999999997,31.604,34.035,35.39,36.246,37.865
31.401999999999997,31.596999999999998,34.266,35.361999999999995,36.314,37.915
31.419,31.590999999999998,34.510999999999996,35.33,36.382,37.957
31.439,31.586,34.765,35.292,36.446999999999996,37.989000000000004
31.46,31.583000000000002,35.024,35.251,36.508,38.010999999999996
31.48,31.584,35.282,35.205999999999996,36.562,38.022
31.499000000000002,31.590999999999998,35.533,35.157,36.61,38.021
31.517,31.603,35.772,35.105,36.649,38.009
31.531999999999996,31.623,35.996,35.05,36.679,37.985
31.544,31.649,36.2,34.992,36.699,37.949
31.553,31.682,36.382,34.931999999999995,36.709,37.902
31.557,31.72,36.542,34.872,36.709,37.843
31.559,31.761999999999997,36.678000000000004,34.811,36.698,37.775
31.557,31.805999999999997,36.791,34.75,36.678000000000004,37.696
31.552,31.851999999999997,36.88,34.689,36.648,37.61
31.544,31.899,36.948,34.629,36.607,37.516999999999996
31.534000000000002,31.945999999999998,36.994,34.57,36.556999999999995,37.418
31.522,31.993000000000002,37.02,34.510999999999996,36.497,37.314
31.508000000000003,32.038000000000004,37.029,34.453,36.43,37.205999999999996
31.491999999999997,32.079,37.022,34.396,36.356,37.095
31.475,32.115,37.001999999999995,34.339,36.275999999999996,36.982
31.456999999999997,32.143,36.971,34.282,36.19,36.866
31.438000000000002,32.163000000000004,36.931,34.227,36.097,36.749
31.418000000000003,32.173,36.885,34.172,35.997,36.63
31.393,32.172,36.834,34.119,35.89,36.510999999999996
31.362,32.162,36.78,34.067,35.777,36.393
31.326999999999998,32.141999999999996,36.725,34.016,35.659,36.274
31.288,32.113,36.67,33.966,35.535,36.155
31.249000000000002,32.074,36.616,33.918,35.406,36.036
31.211,32.028,36.562,33.872,35.273,35.916
31.177,31.975,36.510999999999996,33.83,35.135999999999996,35.795
31.149,31.916999999999998,36.461999999999996,33.79,34.997,35.673
31.129,31.853,36.417,33.751,34.855,35.549
31.116,31.785999999999998,36.375,33.714,34.713,35.423
31.112,31.715999999999998,36.336,33.68,34.573,35.297
31.116999999999997,31.647,36.3,33.648,34.435,35.169000000000004
31.131,31.581999999999997,36.268,33.618,34.301,35.041
31.154,31.524,36.239000000000004,33.593,34.171,34.913000000000004
31.189,31.475,36.214,33.571,34.045,34.785
31.237,31.439,36.193000000000005,33.551,33.924,34.658
31.301,31.421,36.175,33.53,33.805,34.532
31.384,31.426,36.16,33.507,33.69,34.408
31.491999999999997,31.458000000000002,36.148,33.483000000000004,33.578,34.287
31.628,31.526,36.138000000000005,33.457,33.469,34.169000000000004
31.796,31.636,36.13,33.43,33.363,34.055
32.001999999999995,31.795,36.122,33.403,33.26,33.944
32.249,32.009,36.114000000000004,33.376,33.16,33.839
32.54,32.285,36.105,33.35,33.062,33.736999999999995
32.88,32.626,36.097,33.323,32.966,33.641
33.268,33.032,36.088,33.297,32.873000000000005,33.548
33.705999999999996,33.5,36.08,33.271,32.783,33.46
34.194,34.027,36.073,33.245,32.695,33.374
34.726,34.601,36.065,33.218,32.61,33.291
35.299,35.215,36.056999999999995,33.189,32.529,33.21
35.906,35.854,36.048,33.158,32.45,33.132
36.536,36.507,36.037,33.124,32.374,33.056999999999995
37.181,37.159,36.022,33.089,32.301,32.985
37.829,37.796,36.003,33.052,32.232,32.917
38.469,38.405,35.98,33.012,32.17,32.855
39.089,38.977,35.953,32.971,32.115,32.797
39.68,39.501,35.921,32.927,32.068000000000005,32.744
40.231,39.971,35.885,32.881,32.03,32.696
40.734,40.381,35.845,32.835,31.998,32.650999999999996
41.183,40.729,35.804,32.788000000000004,31.971999999999998,32.61
41.574,41.013000000000005,35.762,32.741,31.948,32.571999999999996
41.905,41.233999999999995,35.721,32.692,31.925,32.536
42.176,41.397,35.681999999999995,32.643,31.901,32.501
42.387,41.503,35.646,32.593,31.875999999999998,32.467
42.54,41.558,35.614000000000004,32.542,31.85,32.434
42.64,41.567,35.586,32.49,31.823,32.4
42.691,41.535,35.562,32.435,31.796999999999997,32.366
42.699,41.468999999999994,35.544000000000004,32.379,31.771,32.333
42.669,41.373000000000005,35.53,32.32,31.745,32.3
42.608999999999995,41.254,35.522,32.260999999999996,31.72,32.269
42.523,41.11600000000001,35.519,32.199,31.695999999999998,32.236999999999995
42.416000000000004,40.964,35.521,32.135999999999996,31.673000000000002,32.205999999999996
42.294,40.802,35.527,32.073,31.651999999999997,32.176
42.161,40.633,35.538000000000004,32.01,31.633000000000003,32.147
42.02,40.459,35.553000000000004,31.947,31.616,32.12
41.875,40.283,35.571999999999996,31.885,31.604,32.097
41.728,40.106,35.595,31.825,31.596,32.076
41.582,39.928000000000004,35.622,31.767,31.594,32.058
41.438,39.751,35.652,31.711,31.596,32.042
41.297,39.573,35.685,31.658,31.601,32.028
41.16,39.396,35.719,31.609,31.607,32.014
41.026,39.219,35.753,31.564,31.614,32.001
40.894,39.042,35.786,31.523000000000003,31.62,31.987
40.764,38.864000000000004,35.815,31.488000000000003,31.625999999999998,31.971999999999998
40.635999999999996,38.685,35.841,31.456999999999997,31.631,31.955
40.508,38.505,35.861,31.429000000000002,31.635,31.936
40.381,38.323,35.876999999999995,31.406,31.639,31.913
40.253,38.141999999999996,35.887,31.386,31.641,31.885
40.125,37.961,35.891,31.366999999999997,31.642,31.851999999999997
39.996,37.781,35.889,31.349,31.643,31.815
39.868,37.604,35.881,31.33,31.642,31.775
39.739000000000004,37.431,35.866,31.309,31.641,31.733
39.61,37.262,35.846,31.285,31.638,31.69
39.481,37.099000000000004,35.821999999999996,31.259,31.636,31.647
39.353,36.943000000000005,35.793,31.229,31.633000000000003,31.603
39.226,36.794000000000004,35.760999999999996,31.195999999999998,31.631999999999998,31.559
39.1,36.653,35.727,31.160999999999998,31.63,31.515
38.975,36.52,35.691,31.124000000000002,31.628,31.471
38.851,36.393,35.653,31.085,31.625,31.427
38.729,36.272,35.614000000000004,31.046,31.621,31.384
38.608000000000004,36.157,35.573,31.009,31.616999999999997,31.343000000000004
38.488,36.045,35.53,30.976999999999997,31.614,31.303
38.369,35.936,35.486999999999995,30.955,31.611,31.265
38.251999999999995,35.83,35.443000000000005,30.943,31.609,31.23
38.137,35.726,35.399,30.941,31.608,31.197
38.023,35.625,35.355,30.948,31.607,31.165
37.911,35.525999999999996,35.312,30.963,31.605999999999998,31.136999999999997
37.802,35.43,35.271,30.986,31.603,31.11
37.695,35.338,35.232,31.015,31.596999999999998,31.086
37.593,35.25,35.193000000000005,31.05,31.589000000000002,31.064
37.495,35.168,35.155,31.09,31.576999999999998,31.041999999999998
37.402,35.092,35.117,31.133000000000003,31.561999999999998,31.02
37.316,35.024,35.08,31.177,31.545,30.998
37.238,34.964,35.043,31.223000000000003,31.525,30.976
37.17,34.913000000000004,35.007,31.269000000000002,31.504,30.953000000000003
37.111,34.873000000000005,34.971,31.314,31.480999999999998,30.928
37.064,34.845,34.936,31.36,31.456,30.903000000000002
37.028,34.829,34.900999999999996,31.405,31.428,30.877
37.005,34.825,34.866,31.45,31.398000000000003,30.851
36.993,34.833,34.832,31.497,31.366999999999997,30.824
36.992,34.853,34.8,31.546,31.334,30.795
37.003,34.883,34.77,31.596999999999998,31.3,30.765
37.024,34.922,34.742,31.651,31.264,30.733
37.054,34.967,34.716,31.71,31.226999999999997,30.698
37.092,35.019,34.691,31.773000000000003,31.189,30.659000000000002
37.135999999999996,35.076,34.667,31.840999999999998,31.15,30.618000000000002
37.184,35.137,34.643,31.915,31.11,30.574
37.235,35.2,34.619,31.996,31.07,30.528000000000002
37.289,35.263000000000005,34.595,32.084,31.029,30.480999999999998
37.346,35.325,34.571,32.18,30.988000000000003,30.435
37.403,35.385,34.547,32.283,30.949,30.391
37.461999999999996,35.441,34.524,32.391,30.91,30.35
37.52,35.493,34.501999999999995,32.501999999999995,30.874000000000002,30.313000000000002
37.578,35.538000000000004,34.483000000000004,32.616,30.839000000000002,30.28
37.635,35.575,34.465,32.732,30.805,30.250999999999998
37.689,35.603,34.448,32.847,30.773000000000003,30.225
37.739000000000004,35.622,34.433,32.961999999999996,30.743000000000002,30.201999999999998
37.786,35.633,34.418,33.074,30.717,30.180999999999997
37.827,35.634,34.403,33.183,30.695,30.162
37.864000000000004,35.626999999999995,34.387,33.286,30.675,30.145
37.895,35.611999999999995,34.371,33.381,30.659000000000002,30.128
37.92,35.588,34.354,33.468,30.643,30.111
37.938,35.556,34.336,33.545,30.628,30.095
37.949,35.516,34.317,33.611999999999995,30.613000000000003,30.079
37.951,35.469,34.298,33.67,30.596,30.064
37.945,35.416,34.279,33.72,30.576,30.05
37.928000000000004,35.357,34.259,33.764,30.554000000000002,30.037
37.902,35.294000000000004,34.239000000000004,33.802,30.529,30.024
37.866,35.227,34.22,33.836999999999996,30.500999999999998,30.011
37.82,35.156,34.2,33.869,30.471,29.999000000000002
37.766,35.080999999999996,34.18,33.9,30.438000000000002,29.986
37.703,35.004,34.161,33.928000000000004,30.403000000000002,29.973000000000003
37.635,34.923,34.141,33.955999999999996,30.365,29.959
37.561,34.841,34.12,33.983000000000004,30.326,29.945
37.484,34.758,34.098,34.01,30.284000000000002,29.932
37.402,34.673,34.075,34.036,30.24,29.921999999999997
37.317,34.586999999999996,34.05,34.063,30.195,29.919
37.227,34.501999999999995,34.025999999999996,34.091,30.149,29.924
37.133,34.417,34.0,34.12,30.103,29.945
37.035,34.333,33.976,34.153,30.055999999999997,29.987
36.934,34.25,33.951,34.192,30.011,30.058000000000003
36.829,34.169000000000004,33.928000000000004,34.241,29.969,30.166
36.721,34.09,33.905,34.305,29.930999999999997,30.32
36.611999999999995,34.013000000000005,33.881,34.387,29.899,30.528000000000002
36.501,33.937,33.858000000000004,34.493,29.877,30.798000000000002
36.391999999999996,33.861999999999995,33.834,34.628,29.866999999999997,31.136999999999997
36.283,33.788000000000004,33.81,34.796,29.872,31.552
36.175,33.715,33.785,35.001,29.899,32.044000000000004
36.069,33.643,33.76,35.248000000000005,29.953000000000003,32.613
35.965,33.571999999999996,33.735,35.537,30.039,33.255
35.863,33.503,33.711,35.869,30.165,33.964
35.763000000000005,33.435,33.686,36.244,30.336,34.729
35.663000000000004,33.367,33.661,36.658,30.558000000000003,35.537
35.565,33.299,33.633,37.108000000000004,30.838,36.372
35.466,33.232,33.604,37.586999999999996,31.178,37.218
35.369,33.167,33.571999999999996,38.086,31.58,38.06
35.271,33.102,33.537,38.596,32.044000000000004,38.881
35.173,33.039,33.499,39.107,32.565,39.667
35.075,32.977,33.458,39.611,33.139,40.406
34.977,32.918,33.417,40.098,33.758,41.086999999999996
34.878,32.861,33.375,40.558,34.409,41.702
34.779,32.806,33.334,40.983999999999995,35.082,42.248000000000005
34.681,32.754,33.294000000000004,41.368,35.763000000000005,42.721000000000004
34.583,32.704,33.254,41.70399999999999,36.437,43.121
34.485,32.657,33.217,41.988,37.093,43.45
34.388000000000005,32.613,33.183,42.218999999999994,37.718,43.711000000000006
34.293,32.571999999999996,33.152,42.396,38.301,43.909
34.201,32.534,33.125,42.522,38.834,44.05
34.111999999999995,32.5,33.102,42.601000000000006,39.309,44.141000000000005
34.025999999999996,32.469,33.084,42.637,39.724000000000004,44.19
33.944,32.442,33.069,42.635,40.075,44.202
33.866,32.418,33.056999999999995,42.601000000000006,40.363,44.184
33.792,32.398,33.047,42.538999999999994,40.59,44.144
33.721,32.38,33.037,42.45399999999999,40.759,44.083999999999996
33.653,32.366,33.027,42.351000000000006,40.874,44.00899999999999
33.588,32.356,33.016999999999996,42.235,40.941,43.923
33.525999999999996,32.35,33.008,42.11,40.964,43.827
33.466,32.347,32.999,41.98,40.951,43.725
33.409,32.348,32.99,41.848,40.906,43.617
33.353,32.352,32.983000000000004,41.714,40.836999999999996,43.505
33.3,32.357,32.975,41.582,40.748000000000005,43.388000000000005
33.248000000000005,32.364000000000004,32.966,41.451,40.643,43.266000000000005
33.198,32.369,32.955,41.321999999999996,40.527,43.138000000000005
33.149,32.372,32.942,41.196999999999996,40.402,43.003
33.102,32.373000000000005,32.927,41.076,40.273,42.861000000000004
33.056,32.372,32.911,40.957,40.14,42.711999999999996
33.010999999999996,32.37,32.893,40.841,40.007,42.556999999999995
32.967,32.367,32.874,40.727,39.873000000000005,42.395
32.924,32.363,32.853,40.615,39.739000000000004,42.227
32.882,32.36,32.832,40.506,39.605,42.051
32.841,32.356,32.81,40.4,39.47,41.87
32.799,32.351,32.788000000000004,40.295,39.332,41.684
32.757,32.345,32.768,40.191,39.192,41.494
32.716,32.339,32.75,40.088,39.049,41.303000000000004
32.679,32.332,32.736,39.984,38.902,41.111000000000004
32.648,32.325,32.724000000000004,39.879,38.751,40.919000000000004
32.625,32.319,32.716,39.772,38.596,40.729
32.607,32.315,32.711999999999996,39.662,38.438,40.543
32.594,32.313,32.711999999999996,39.549,38.277,40.361
32.584,32.313,32.715,39.433,38.116,40.184
32.574,32.317,32.721,39.312,37.955999999999996,40.010999999999996
32.565,32.323,32.731,39.186,37.798,39.841
32.553000000000004,32.332,32.745,39.055,37.643,39.671
32.539,32.343,32.765,38.92,37.491,39.501
32.522,32.355,32.79,38.785,37.342,39.330999999999996
32.501999999999995,32.368,32.823,38.650999999999996,37.196999999999996,39.164
32.48,32.383,32.864000000000004,38.515,37.054,38.997
32.457,32.399,32.917,38.376,36.913000000000004,38.832
32.434,32.416,32.983000000000004,38.232,36.774,38.668
32.413000000000004,32.431999999999995,33.065,38.080999999999996,36.634,38.504
32.394,32.446,33.165,37.923,36.495,38.341
32.378,32.458,33.287,37.757,36.356,38.178000000000004
32.366,32.465,33.431,37.584,36.216,38.016
32.357,32.468,33.598,37.405,36.075,37.857
32.354,32.467,33.786,37.224000000000004,35.934,37.701
32.355,32.464,33.994,37.041,35.794000000000004,37.549
32.361,32.457,34.22,36.861,35.657,37.403
32.369,32.45,34.461,36.686,35.523,37.265
32.38,32.441,34.713,36.518,35.394,37.137
32.391999999999996,32.431999999999995,34.973,36.358000000000004,35.272,37.021
32.406,32.421,35.236999999999995,36.209,35.158,36.918
32.42,32.411,35.5,36.071,35.055,36.83
32.436,32.399,35.758,35.946,34.963,36.758
32.452,32.387,36.006,35.833,34.885,36.704
32.468,32.374,36.242,35.733000000000004,34.821999999999996,36.668
32.484,32.359,36.463,35.644,34.774,36.650999999999996
32.499,32.342,36.666,35.566,34.741,36.652
32.512,32.323,36.849000000000004,35.497,34.725,36.67
32.523,32.304,37.010999999999996,35.437,34.727,36.704
32.532,32.283,37.152,35.383,34.748000000000005,36.753
32.538000000000004,32.260999999999996,37.271,35.336,34.788000000000004,36.816
32.54,32.236999999999995,37.368,35.294000000000004,34.846,36.891
32.539,32.213,37.445,35.256,34.919000000000004,36.978
32.533,32.187,37.501,35.22,35.008,37.071999999999996
32.522,32.162,37.538000000000004,35.186,35.109,37.17
32.506,32.135999999999996,37.556999999999995,35.152,35.222,37.27
32.486,32.111,37.558,35.118,35.344,37.372
32.46,32.086,37.545,35.085,35.472,37.475
32.431999999999995,32.063,37.516999999999996,35.052,35.604,37.577
32.400999999999996,32.041,37.478,35.019,35.736,37.679
32.367,32.019,37.427,34.986,35.867,37.778
32.333,31.998,37.368,34.954,35.995,37.871
32.297,31.976,37.303000000000004,34.923,36.118,37.958
32.26,31.953000000000003,37.234,34.895,36.235,38.036
32.225,31.929000000000002,37.163000000000004,34.87,36.344,38.104
32.191,31.903000000000002,37.093,34.849000000000004,36.446,38.163000000000004
32.158,31.877,37.025,34.832,36.538000000000004,38.21
32.129,31.849,36.961,34.817,36.62,38.245
32.101,31.82,36.9,34.806999999999995,36.691,38.266999999999996
32.076,31.79,36.844,34.799,36.751999999999995,38.278
32.051,31.76,36.793,34.795,36.801,38.277
32.025999999999996,31.728,36.748000000000005,34.793,36.84,38.264
32.0,31.695999999999998,36.71,34.794000000000004,36.866,38.241
31.974,31.662,36.677,34.795,36.881,38.205999999999996
31.945999999999998,31.628,36.649,34.798,36.883,38.16
31.918000000000003,31.595,36.625,34.799,36.873000000000005,38.101
31.889,31.564,36.606,34.799,36.851,38.033
31.859,31.535,36.59,34.795,36.82,37.954
31.829,31.509,36.576,34.789,36.778,37.867
31.798000000000002,31.486,36.565,34.778,36.729,37.771
31.768,31.467,36.556,34.762,36.673,37.669000000000004
31.739,31.451,36.547,34.742,36.61,37.561
31.711,31.439,36.538000000000004,34.718,36.542,37.448
31.684,31.430999999999997,36.528,34.69,36.467,37.330999999999996
31.659000000000002,31.43,36.516999999999996,34.657,36.388000000000005,37.21
31.636,31.436999999999998,36.503,34.623000000000005,36.304,37.084
31.614,31.454,36.486,34.586,36.216,36.953
31.593000000000004,31.485,36.464,34.549,36.125,36.817
31.573,31.534000000000002,36.436,34.510999999999996,36.032,36.676
31.552,31.601999999999997,36.403,34.473,35.934,36.532
31.53,31.695999999999998,36.364000000000004,34.435,35.832,36.385999999999996
31.506999999999998,31.82,36.32,34.397,35.725,36.236999999999995
31.482,31.979,36.271,34.358000000000004,35.615,36.085
31.456,32.177,36.218,34.319,35.503,35.931
31.429000000000002,32.418,36.162,34.279,35.389,35.774
31.401,32.705,36.105,34.238,35.274,35.615
31.371,33.041,36.047,34.198,35.158,35.455
31.340999999999998,33.424,35.991,34.157,35.042,35.295
31.311,33.851,35.937,34.114000000000004,34.927,35.135999999999996
31.281,34.319,35.887,34.071,34.813,34.98
31.254,34.819,35.84,34.028,34.702,34.828
31.230999999999998,35.344,35.798,33.985,34.592,34.681
31.214000000000002,35.881,35.759,33.944,34.485,34.54
31.204,36.421,35.723,33.904,34.381,34.406
31.204,36.951,35.69,33.866,34.28,34.278
31.215999999999998,37.461,35.66,33.832,34.181,34.156
31.243000000000002,37.94,35.633,33.802,34.086,34.039
31.289,38.379,35.609,33.775999999999996,33.995,33.928000000000004
31.355999999999998,38.773,35.586999999999996,33.751999999999995,33.907,33.821
31.448,39.115,35.569,33.729,33.824,33.718
31.570999999999998,39.405,35.554,33.708,33.745,33.618
31.726999999999997,39.638000000000005,35.543,33.688,33.671,33.519
31.921999999999997,39.815,35.535,33.67,33.601,33.423
32.157,39.938,35.531,33.653,33.535,33.329
32.438,40.008,35.531,33.637,33.472,33.238
32.766,40.03,35.534,33.622,33.41,33.15
33.141999999999996,40.009,35.54,33.607,33.349000000000004,33.067
33.567,39.949,35.549,33.594,33.289,32.986999999999995
34.038000000000004,39.855,35.559,33.580999999999996,33.231,32.912
34.552,39.734,35.571,33.57,33.173,32.843
35.104,39.589,35.584,33.559,33.117,32.778
35.686,39.427,35.596,33.548,33.06,32.719
36.29,39.251999999999995,35.607,33.537,33.005,32.665
36.906,39.069,35.618,33.525999999999996,32.951,32.617
37.525999999999996,38.881,35.629,33.514,32.899,32.573
38.137,38.692,35.639,33.504,32.848,32.535
38.732,38.503,35.65,33.5,32.799,32.5
39.299,38.315,35.66,33.504,32.751999999999995,32.468
39.830999999999996,38.13,35.669000000000004,33.516999999999996,32.707,32.44
40.321,37.949,35.678000000000004,33.537,32.665,32.414
40.763000000000005,37.77,35.686,33.563,32.626,32.39
41.156000000000006,37.597,35.691,33.596,32.59,32.368
41.497,37.428000000000004,35.694,33.638000000000005,32.556,32.348
41.787,37.264,35.694,33.688,32.525999999999996,32.328
42.026,37.106,35.69,33.745,32.498000000000005,32.306999999999995
42.218999999999994,36.954,35.684,33.809,32.474000000000004,32.285
42.369,36.806999999999995,35.674,33.88,32.454,32.263000000000005
42.481,36.665,35.662,33.954,32.437,32.242
42.558,36.531,35.646,34.033,32.423,32.221
42.601000000000006,36.404,35.628,34.116,32.411,32.201
42.615,36.285,35.608000000000004,34.204,32.402,32.181
42.603,36.174,35.584,34.296,32.394,32.16
42.571999999999996,36.071999999999996,35.558,34.393,32.388000000000005,32.139
42.525,35.978,35.529,34.495,32.385,32.117
42.466,35.891,35.497,34.602,32.383,32.095
42.401,35.812,35.463,34.714,32.383,32.071999999999996
42.331,35.741,35.426,34.830999999999996,32.383,32.048
42.258,35.676,35.387,34.951,32.384,32.025
42.185,35.617,35.346,35.071999999999996,32.383,32.001999999999995
42.113,35.564,35.305,35.191,32.381,31.98
42.04,35.516,35.263000000000005,35.304,32.376,31.956999999999997
41.966,35.471,35.221,35.409,32.37,31.935
41.891999999999996,35.43,35.18,35.504,32.361999999999995,31.915
41.815,35.391999999999996,35.14,35.586999999999996,32.353,31.896
41.736000000000004,35.355,35.101,35.655,32.345,31.878
41.653999999999996,35.319,35.064,35.709,32.338,31.862
41.568000000000005,35.284,35.028,35.745,32.330999999999996,31.848000000000003
41.478,35.251,34.994,35.764,32.325,31.834
41.38399999999999,35.219,34.961999999999996,35.766,32.317,31.820999999999998
41.285,35.189,34.933,35.751,32.309,31.809
41.181000000000004,35.163000000000004,34.904,35.72,32.299,31.798000000000002
41.071000000000005,35.143,34.875,35.674,32.288000000000004,31.789
40.955999999999996,35.129,34.846,35.615,32.275,31.781999999999996
40.835,35.123000000000005,34.816,35.545,32.262,31.776999999999997
40.711,35.124,34.784,35.465,32.247,31.774
40.583,35.135,34.751,35.376,32.231,31.774
40.453,35.154,34.717,35.281,32.215,31.774
40.32,35.183,34.681,35.181,32.198,31.774
40.185,35.219,34.646,35.078,32.181,31.775
40.047,35.263000000000005,34.611999999999995,34.976,32.163000000000004,31.775
39.907,35.31,34.577,34.876,32.144,31.773000000000003
39.765,35.36,34.541,34.78,32.124,31.768
39.621,35.411,34.505,34.69,32.104,31.76
39.476,35.461999999999996,34.469,34.606,32.084,31.748
39.33,35.51,34.433,34.529,32.063,31.733
39.184,35.556999999999995,34.399,34.458,32.043,31.715
39.04,35.601,34.366,34.394,32.024,31.695
38.898,35.641,34.336,34.336,32.007,31.671999999999997
38.759,35.677,34.308,34.283,31.994,31.648000000000003
38.624,35.708,34.282,34.235,31.985,31.621
38.494,35.733000000000004,34.257,34.19,31.979,31.593000000000004
38.37,35.749,34.235,34.148,31.976,31.563000000000002
38.254,35.756,34.215,34.108000000000004,31.976,31.531
38.146,35.754,34.196999999999996,34.069,31.976,31.498
38.047,35.743,34.181,34.031,31.976999999999997,31.464000000000002
37.958,35.722,34.167,33.993,31.976,31.427
37.879,35.694,34.155,33.955999999999996,31.974,31.388
37.811,35.659,34.144,33.921,31.97,31.346999999999998
37.755,35.617,34.134,33.885999999999996,31.964000000000002,31.304000000000002
37.708,35.571999999999996,34.125,33.854,31.956999999999997,31.259
37.672,35.523,34.115,33.824,31.949,31.213
37.646,35.472,34.103,33.797,31.94,31.166999999999998
37.628,35.421,34.089,33.773,31.930999999999997,31.121
37.617,35.369,34.073,33.753,31.919,31.076999999999998
37.611999999999995,35.319,34.054,33.735,31.903000000000002,31.035
37.613,35.271,34.032,33.72,31.883000000000003,30.997
37.621,35.225,34.009,33.707,31.858,30.965999999999998
37.633,35.178000000000004,33.984,33.695,31.829,30.945
37.65,35.132,33.957,33.683,31.796,30.939
37.671,35.084,33.93,33.671,31.76,30.954
37.695,35.036,33.900999999999996,33.659,31.721,30.999000000000002
37.721,34.986,33.873000000000005,33.647,31.680999999999997,31.078000000000003
37.749,34.934,33.844,33.634,31.641,31.201999999999998
37.775,34.879,33.814,33.62,31.601999999999997,31.378
37.801,34.823,33.786,33.604,31.563000000000002,31.614
37.824,34.765,33.757,33.585,31.526,31.913
37.843,34.705,33.731,33.563,31.488000000000003,32.281
37.859,34.645,33.705999999999996,33.539,31.45,32.718
37.87,34.584,33.681999999999995,33.513000000000005,31.412,33.222
37.876,34.523,33.658,33.484,31.374000000000002,33.789
37.876999999999995,34.463,33.635,33.452,31.336,34.411
37.874,34.404,33.611999999999995,33.417,31.296999999999997,35.077
37.864000000000004,34.347,33.588,33.379,31.26,35.779
37.849000000000004,34.293,33.564,33.338,31.226,36.503
37.83,34.242,33.54,33.296,31.197,37.236
37.805,34.195,33.515,33.254,31.174,37.964
37.777,34.152,33.49,33.211999999999996,31.160999999999998,38.673
37.745,34.115,33.464,33.17,31.16,39.352
37.71,34.084,33.438,33.13,31.174,39.989000000000004
37.671,34.059,33.409,33.093,31.21,40.576
37.628,34.041,33.378,33.06,31.272,41.107
37.580999999999996,34.029,33.346,33.029,31.368000000000002,41.576
37.53,34.022,33.313,33.001,31.505,41.983999999999995
37.475,34.02,33.278,32.975,31.689,42.328
37.415,34.02,33.244,32.95,31.927,42.611000000000004
37.35,34.021,33.211,32.925,32.224000000000004,42.836000000000006
37.28,34.023,33.178000000000004,32.899,32.585,43.005
37.204,34.025,33.146,32.872,33.012,43.125
37.123000000000005,34.025999999999996,33.116,32.845,33.504,43.2
37.037,34.027,33.089,32.818000000000005,34.055,43.236000000000004
36.946,34.025999999999996,33.065,32.791,34.66,43.24
36.852,34.023,33.045,32.765,35.306999999999995,43.218
36.755,34.018,33.03,32.744,35.985,43.175
36.656,34.01,33.019,32.727,36.68,43.115
36.556999999999995,34.0,33.01,32.718,37.378,43.042
36.457,33.986,33.004,32.72,38.064,42.958
36.357,33.97,33.0,32.736,38.725,42.865
36.256,33.951,32.997,32.772,39.348,42.765
36.155,33.928000000000004,32.994,32.834,39.924,42.659
36.054,33.903,32.993,32.926,40.445,42.549
35.951,33.875,32.994,33.056,40.906,42.434
35.849000000000004,33.845,32.999,33.229,41.306000000000004,42.315
35.747,33.813,33.010999999999996,33.448,41.641000000000005,42.191
35.646,33.782,33.031,33.717,41.913999999999994,42.06100000000001
35.546,33.75,33.063,34.036,42.126000000000005,41.924
35.446,33.719,33.109,34.404,42.281000000000006,41.778999999999996
35.347,33.689,33.17,34.818000000000005,42.385,41.628
35.25,33.661,33.249,35.272,42.443000000000005,41.468999999999994
35.155,33.635999999999996,33.347,35.758,42.461000000000006,41.306000000000004
35.06,33.611999999999995,33.464,36.269,42.445,41.137
34.967,33.592,33.601,36.794000000000004,42.398,40.965
34.876,33.574,33.755,37.321,42.327,40.79
34.786,33.559,33.926,37.842,42.235,40.614000000000004
34.698,33.548,34.111,38.345,42.128,40.438
34.611999999999995,33.541,34.306,38.821,42.008,40.263000000000005
34.529,33.537,34.51,39.264,41.881,40.09
34.448,33.537,34.72,39.667,41.746,39.92
34.372,33.54,34.93,40.025,41.607,39.751
34.299,33.545,35.139,40.334,41.465,39.585
34.23,33.552,35.342,40.593,41.321000000000005,39.42
34.164,33.56,35.537,40.801,41.175,39.256
34.102,33.567,35.719,40.961000000000006,41.028,39.093
34.041,33.574,35.888000000000005,41.075,40.879,38.931999999999995
33.982,33.580999999999996,36.04,41.146,40.728,38.771
33.923,33.586,36.175,41.181000000000004,40.577,38.611
33.864000000000004,33.591,36.291,41.183,40.423,38.451
33.805,33.594,36.388000000000005,41.156000000000006,40.269,38.293
33.746,33.597,36.466,41.105,40.114000000000004,38.133
33.689,33.599000000000004,36.525,41.034,39.958,37.973
33.634,33.601,36.566,40.946999999999996,39.803000000000004,37.813
33.582,33.602,36.591,40.847,39.648,37.652
33.534,33.602,36.599000000000004,40.738,39.495,37.491
33.491,33.6,36.593,40.624,39.346,37.33
33.452,33.596,36.575,40.505,39.2,37.171
33.418,33.589,36.546,40.383,39.059,37.015
33.387,33.579,36.509,40.260999999999996,38.921,36.863
33.358000000000004,33.567,36.465,40.138000000000005,38.787,36.716
33.330999999999996,33.552,36.416,40.015,38.657,36.577
33.304,33.534,36.363,39.894,38.53,36.446999999999996
33.278,33.514,36.309,39.774,38.405,36.328
33.25,33.491,36.253,39.654,38.282,36.223
33.221,33.466,36.198,39.535,38.158,36.132
33.19,33.44,36.144,39.416,38.033,36.056999999999995
33.158,33.411,36.092,39.299,37.909,35.996
33.124,33.379,36.043,39.184,37.786,35.951
33.09,33.346,35.997,39.071,37.664,35.921
33.056999999999995,33.311,35.954,38.961,37.543,35.907
33.023,33.275999999999996,35.915,38.852,37.422,35.909
32.991,33.24,35.879,38.747,37.303000000000004,35.926
32.959,33.205,35.847,38.644,37.185,35.958
32.928000000000004,33.17,35.819,38.544000000000004,37.07,36.005
32.898,33.137,35.794000000000004,38.448,36.96,36.065
32.868,33.105,35.772,38.354,36.855,36.135
32.841,33.073,35.753,38.264,36.756,36.214
32.814,33.042,35.738,38.175,36.664,36.301
32.79,33.010999999999996,35.724000000000004,38.089,36.580999999999996,36.393
32.768,32.981,35.711999999999996,38.005,36.508,36.488
32.748000000000005,32.95,35.701,37.924,36.446999999999996,36.586
32.731,32.918,35.69,37.844,36.398,36.683
32.716,32.883,35.679,37.765,36.363,36.778
32.702,32.845,35.669000000000004,37.687,36.342,36.869
32.691,32.804,35.658,37.609,36.335,36.954
32.681,32.76,35.648,37.533,36.343,37.031
32.672,32.714,35.638000000000005,37.458,36.365,37.099000000000004
32.664,32.664,35.628,37.385,36.400999999999996,37.155
32.657,32.611999999999995,35.62,37.315,36.449,37.199
32.65,32.558,35.611999999999995,37.248000000000005,36.509,37.229
32.641999999999996,32.503,35.607,37.184,36.58,37.246
32.634,32.446,35.602,37.123000000000005,36.662,37.248000000000005
32.626,32.387,35.599000000000004,37.066,36.753,37.236999999999995
32.617,32.327,35.595,37.012,36.852,37.213
32.606,32.268,35.592,36.963,36.957,37.176
32.595,32.209,35.588,36.92,37.067,37.126999999999995
32.583,32.152,35.585,36.882,37.181,37.068000000000005
32.569,32.098,35.580999999999996,36.851,37.295,36.998000000000005
32.555,32.049,35.579,36.826,37.409,36.918
32.54,32.006,35.579,36.806,37.519,36.827
32.523,31.971999999999998,35.582,36.792,37.624,36.727
32.506,31.95,35.589,36.784,37.721,36.619
32.488,31.941,35.601,36.782,37.809,36.503
32.468,31.951,35.617,36.787,37.887,36.38
32.448,31.984,35.639,36.798,37.952,36.251999999999995
32.427,32.044000000000004,35.666,36.815,38.006,36.118
32.405,32.138000000000005,35.7,36.838,38.046,35.978
32.382,32.274,35.738,36.868,38.074,35.833
32.359,32.458,35.781,36.903,38.088,35.683
32.336,32.696,35.826,36.941,38.09,35.528
32.313,32.994,35.874,36.981,38.08,35.37
32.291,33.354,35.924,37.021,38.059,35.21
32.269,33.777,35.974000000000004,37.061,38.029,35.048
32.249,34.259,36.024,37.099000000000004,37.989000000000004,34.885999999999996
32.231,34.793,36.075,37.134,37.939,34.724000000000004
32.215,35.372,36.125,37.165,37.879,34.563
32.201,35.984,36.175,37.193000000000005,37.81,34.403
32.19,36.614000000000004,36.224000000000004,37.217,37.733000000000004,34.246
32.18,37.247,36.27,37.236,37.649,34.09
32.17,37.871,36.312,37.25,37.558,33.938
32.16,38.472,36.35,37.258,37.463,33.789
32.15,39.037,36.382,37.26,37.361999999999995,33.641999999999996
32.138000000000005,39.556999999999995,36.406,37.256,37.256,33.499
32.126,40.023,36.423,37.247,37.147,33.358000000000004
32.113,40.429,36.434,37.233000000000004,37.035,33.221
32.098,40.769,36.438,37.213,36.922,33.089
32.083,41.042,36.437,37.189,36.809,32.961
32.068000000000005,41.25,36.431999999999995,37.159,36.696,32.841
32.052,41.395,36.421,37.124,36.583,32.729
32.036,41.48,36.408,37.083,36.47,32.628
32.019,41.512,36.39,37.037,36.357,32.538000000000004
32.003,41.497,36.37,36.986999999999995,36.244,32.461
31.985,41.44,36.347,36.931,36.13,32.395
31.965999999999998,41.35,36.321999999999996,36.872,36.016999999999996,32.341
31.945999999999998,41.232,36.294000000000004,36.809,35.903,32.298
31.924,41.092,36.264,36.741,35.79,32.263000000000005
31.9,40.937,36.233000000000004,36.669000000000004,35.677,32.236
31.875999999999998,40.771,36.201,36.593,35.565,32.215
31.85,40.598,36.17,36.513000000000005,35.453,32.196
31.824,40.423,36.141,36.429,35.342,32.18
31.798000000000002,40.249,36.114000000000004,36.341,35.234,32.164
31.772,40.078,36.091,36.249,35.128,32.148
31.747,39.913000000000004,36.071999999999996,36.155,35.027,32.132
31.723000000000003,39.754,36.058,36.058,34.929,32.117
31.698,39.6,36.047,35.96,34.835,32.101
31.675,39.451,36.041,35.859,34.745,32.084
31.651999999999997,39.305,36.038000000000004,35.756,34.657,32.065
31.629,39.162,36.039,35.650999999999996,34.573,32.045
31.607,39.02,36.043,35.545,34.493,32.023
31.587,38.88,36.05,35.438,34.416,32.001999999999995
31.568,38.739000000000004,36.06,35.330999999999996,34.344,31.98
31.55,38.599000000000004,36.071999999999996,35.226,34.275,31.96
31.531999999999996,38.459,36.082,35.126,34.209,31.941999999999997
31.514,38.319,36.091,35.031,34.144,31.926
31.496,38.18,36.095,34.942,34.08,31.912
31.476999999999997,38.042,36.098,34.858000000000004,34.016999999999996,31.903000000000002
31.459,37.908,36.105,34.778,33.954,31.896
31.441999999999997,37.777,36.116,34.702,33.893,31.893
31.427,37.65,36.132,34.631,33.834,31.893
31.414,37.527,36.15,34.563,33.779,31.895
31.404,37.407,36.167,34.498000000000005,33.729,31.899
31.397,37.291,36.18,34.436,33.685,31.904
31.392,37.178000000000004,36.185,34.376,33.646,31.906999999999996
31.391,37.068000000000005,36.18,34.318000000000005,33.614000000000004,31.909000000000002
31.393,36.96,36.163000000000004,34.262,33.588,31.909000000000002
31.397,36.855,36.133,34.208,33.568000000000005,31.908
31.404,36.751,36.091,34.156,33.555,31.905
31.414,36.649,36.037,34.107,33.548,31.898000000000003
31.428,36.548,35.973,34.061,33.545,31.888
31.445999999999998,36.448,35.902,34.018,33.545,31.872
31.471,36.347,35.826,33.978,33.546,31.851
31.506999999999998,36.246,35.747,33.94,33.547,31.824
31.558000000000003,36.144,35.667,33.904,33.546,31.791
31.628,36.041,35.588,33.87,33.543,31.754
31.724,35.938,35.510999999999996,33.836999999999996,33.539,31.711
31.851,35.834,35.436,33.804,33.533,31.664
32.016,35.732,35.365,33.773,33.525999999999996,31.615
32.226,35.632,35.298,33.742,33.518,31.564
32.486,35.536,35.238,33.711,33.508,31.511999999999997
32.802,35.443000000000005,35.185,33.68,33.498000000000005,31.462
33.177,35.356,35.14,33.65,33.488,31.413
33.609,35.275999999999996,35.102,33.621,33.478,31.369
34.097,35.203,35.071,33.593,33.468,31.328000000000003
34.635999999999996,35.139,35.045,33.565,33.46,31.291999999999998
35.22,35.084,35.024,33.539,33.455,31.259
35.84,35.039,35.007,33.513000000000005,33.453,31.23
36.483000000000004,35.006,34.992,33.489000000000004,33.455,31.203000000000003
37.138000000000005,34.986,34.978,33.465,33.461999999999996,31.18
37.79,34.978,34.966,33.443000000000005,33.474000000000004,31.159000000000002
38.425,34.982,34.955999999999996,33.422,33.49,31.141
39.031,34.996,34.946999999999996,33.402,33.509,31.123
39.596,35.02,34.938,33.384,33.531,31.107
40.111999999999995,35.054,34.927,33.368,33.553000000000004,31.092
40.571,35.095,34.915,33.355,33.576,31.078000000000003
40.971000000000004,35.143,34.9,33.344,33.596,31.064
41.306999999999995,35.196,34.882,33.334,33.611999999999995,31.05
41.581,35.253,34.861,33.325,33.621,31.035999999999998
41.792,35.312,34.835,33.317,33.625,31.022
41.945,35.371,34.806999999999995,33.311,33.621,31.008000000000003
42.044,35.428000000000004,34.775,33.306,33.611999999999995,30.991
42.093,35.482,34.741,33.301,33.596,30.971999999999998
42.099,35.531,34.705,33.297,33.576,30.95
42.068999999999996,35.575,34.666,33.294000000000004,33.551,30.926
42.00899999999999,35.614000000000004,34.624,33.291,33.522,30.899
41.925,35.648,34.58,33.291,33.491,30.872
41.824,35.675,34.532,33.293,33.458,30.842
41.708999999999996,35.695,34.482,33.296,33.423,30.811999999999998
41.583999999999996,35.707,34.431,33.3,33.387,30.78
41.452,35.711,34.38,33.303000000000004,33.35,30.746
41.315,35.708,34.330999999999996,33.305,33.314,30.711
41.175,35.698,34.284,33.305,33.278,30.676
41.033,35.681999999999995,34.24,33.3,33.242,30.64
40.89,35.659,34.199,33.291,33.208,30.604
40.746,35.631,34.163000000000004,33.278,33.175,30.568
40.602,35.599000000000004,34.132,33.26,33.144,30.531
40.458,35.562,34.104,33.238,33.116,30.493000000000002
40.315,35.522,34.080999999999996,33.213,33.089,30.451999999999998
40.171,35.477,34.063,33.181999999999995,33.065,30.41
40.027,35.428000000000004,34.051,33.148,33.041,30.366999999999997
39.882,35.375,34.045,33.11,33.019,30.325
39.736999999999995,35.317,34.043,33.069,32.995,30.284000000000002
39.591,35.255,34.046,33.027,32.971,30.245
39.446999999999996,35.187,34.053000000000004,32.984,32.946,30.21
39.303000000000004,35.114000000000004,34.063,32.942,32.92,30.180999999999997
39.16,35.036,34.076,32.9,32.894,30.160999999999998
39.019,34.953,34.092,32.861,32.867,30.156
38.88,34.866,34.109,32.824,32.84,30.171
38.743,34.775,34.126999999999995,32.788000000000004,32.811,30.215999999999998
38.608000000000004,34.683,34.146,32.755,32.782,30.298000000000002
38.475,34.59,34.165,32.725,32.751,30.429000000000002
38.346,34.496,34.181999999999995,32.696999999999996,32.719,30.618000000000002
38.219,34.402,34.196999999999996,32.671,32.683,30.873
38.097,34.309,34.208,32.649,32.643,31.201999999999998
37.978,34.217,34.217,32.629,32.599000000000004,31.61
37.863,34.126,34.222,32.61,32.551,32.098
37.751999999999995,34.036,34.224000000000004,32.593,32.501,32.665
37.644,33.946,34.223,32.578,32.45,33.306999999999995
37.54,33.859,34.218,32.563,32.398,34.015
37.44,33.775,34.211,32.549,32.345,34.775999999999996
37.344,33.693000000000005,34.203,32.536,32.291,35.576
37.253,33.615,34.194,32.524,32.236,36.397
37.166,33.541,34.187,32.510999999999996,32.179,37.223
37.080999999999996,33.47,34.181999999999995,32.499,32.12,38.038000000000004
37.0,33.403,34.181,32.485,32.06,38.825
36.919000000000004,33.339,34.188,32.469,31.998,39.571
36.841,33.279,34.203,32.451,31.934,40.260999999999996
36.765,33.223,34.231,32.431999999999995,31.87,40.887
36.692,33.17,34.273,32.41,31.807,41.44
36.625,33.122,34.332,32.387,31.746,41.915
36.565,33.078,34.41,32.361999999999995,31.688000000000002,42.312
36.514,33.037,34.508,32.34,31.634,42.63
36.474000000000004,33.0,34.629,32.32,31.587,42.873000000000005
36.446,32.967,34.771,32.303000000000004,31.548000000000002,43.047
36.431999999999995,32.938,34.931999999999995,32.287,31.52,43.157
36.431999999999995,32.914,35.111,32.273,31.508000000000003,43.208999999999996
36.445,32.896,35.305,32.258,31.517,43.211000000000006
36.472,32.883,35.508,32.243,31.553,43.169
36.512,32.876,35.718,32.226,31.624000000000002,43.092
36.562,32.876,35.93,32.205999999999996,31.738000000000003,42.986000000000004
36.623000000000005,32.882,36.14,32.184,31.905,42.858000000000004
36.69,32.894,36.344,32.161,32.132,42.714
36.764,32.911,36.538000000000004,32.135999999999996,32.425,42.56
36.841,32.931999999999995,36.718,32.109,32.787,42.398999999999994
36.919000000000004,32.957,36.881,32.082,33.217,42.232
36.999,32.986,37.025,32.055,33.713,42.06
37.078,33.016999999999996,37.149,32.03,34.269,41.886
37.156,33.05,37.251,32.007,34.876,41.71
37.231,33.084,37.33,31.987,35.523,41.535
37.303000000000004,33.118,37.387,31.969,36.196,41.361999999999995
37.368,33.155,37.423,31.955,36.879,41.193000000000005
37.427,33.194,37.439,31.941999999999997,37.559,41.026
37.477,33.235,37.437,31.930999999999997,38.222,40.863
37.518,33.277,37.418,31.92,38.855,40.702
37.549,33.319,37.383,31.909000000000002,39.446,40.544000000000004
37.57,33.359,37.336,31.898000000000003,39.986999999999995,40.387
37.58,33.395,37.277,31.886,40.47,40.231
37.58,33.428000000000004,37.21,31.873,40.891999999999996,40.076
37.57,33.454,37.137,31.86,41.248999999999995,39.92
37.551,33.473,37.059,31.846999999999998,41.541000000000004,39.763000000000005
37.523,33.485,36.978,31.833000000000002,41.77,39.605
37.488,33.49,36.895,31.82,41.93899999999999,39.446
37.446,33.486,36.811,31.808000000000003,42.052,39.286
37.397,33.476,36.727,31.796,42.113,39.126
37.342,33.46,36.641,31.785,42.128,38.964
37.281,33.44,36.556,31.774,42.105,38.802
37.213,33.415,36.47,31.764,42.048,38.639
37.14,33.389,36.385,31.753,41.963,38.476
37.059,33.361,36.301,31.741,41.856,38.313
36.973,33.330999999999996,36.218,31.726999999999997,41.73,38.15
36.882,33.301,36.137,31.711,41.59,37.988
36.786,33.27,36.058,31.693,41.44,37.828
36.685,33.239000000000004,35.982,31.673000000000002,41.283,37.669000000000004
36.580999999999996,33.207,35.907,31.651,41.122,37.514
36.475,33.176,35.835,31.628,40.96,37.361999999999995
36.366,33.144,35.765,31.603,40.796,37.214
36.256,33.114000000000004,35.698,31.578000000000003,40.632,37.07
36.144,33.085,35.633,31.555,40.469,36.928000000000004
36.032,33.056999999999995,35.57,31.535,40.306999999999995,36.789
35.92,33.03,35.51,31.521,40.148,36.652
35.81,33.003,35.452,31.514,39.992,36.518
35.701,32.976,35.396,31.52,39.839,36.387
35.594,32.949,35.341,31.543000000000003,39.688,36.259
35.488,32.923,35.286,31.588,39.539,36.133
35.384,32.896,35.229,31.66,39.391,36.010999999999996
35.281,32.87,35.171,31.765,39.244,35.893
35.178000000000004,32.843,35.11,31.906,39.097,35.781
35.075,32.817,35.045,32.089,38.949,35.677
34.973,32.791,34.976,32.316,38.8,35.582
34.873000000000005,32.766,34.902,32.59,38.649,35.497
34.773,32.742,34.826,32.911,38.495,35.424
34.676,32.718,34.747,33.28,38.34,35.364000000000004
34.584,32.696,34.667,33.692,38.183,35.318000000000005
34.496,32.675,34.586999999999996,34.144,38.025999999999996,35.286
34.413000000000004,32.656,34.507,34.63,37.868,35.269
34.336999999999996,32.637,34.428000000000004,35.144,37.709,35.266999999999996
34.266999999999996,32.619,34.35,35.675,37.552,35.279
34.202,32.6,34.274,36.215,37.395,35.304
34.143,32.579,34.2,36.753,37.239000000000004,35.341
34.089,32.556999999999995,34.13,37.278,37.085,35.389
34.038000000000004,32.532,34.067,37.782,36.931999999999995,35.446
33.991,32.505,34.01,38.255,36.78,35.509
33.946,32.476,33.96,38.691,36.63,35.577
33.904,32.446,33.917,39.082,36.481,35.648
33.863,32.415,33.88,39.424,36.336999999999996,35.72
33.821999999999996,32.383,33.851,39.716,36.201,35.794000000000004
33.782,32.349000000000004,33.828,39.955999999999996,36.075,35.868
33.743,32.313,33.81,40.145,35.957,35.942
33.704,32.272,33.797,40.287,35.847,36.014
33.666,32.227,33.788000000000004,40.385,35.746,36.082
33.631,32.18,33.784,40.443000000000005,35.653,36.145
33.596,32.131,33.784,40.464,35.569,36.202
33.563,32.083,33.787,40.454,35.492,36.255
33.531,32.038000000000004,33.792,40.416,35.424,36.301
33.5,31.997,33.799,40.356,35.365,36.34
33.471,31.961,33.806999999999995,40.278,35.316,36.372
33.443000000000005,31.930999999999997,33.816,40.187,35.279,36.394
33.416,31.906999999999996,33.825,40.085,35.254,36.407
33.391,31.89,33.836,39.976,35.241,36.411
33.368,31.879,33.847,39.861999999999995,35.24,36.405
33.346,31.878,33.859,39.747,35.25,36.39
33.327,31.886,33.87,39.632,35.272,36.365
33.31,31.906,33.881,39.516999999999996,35.304,36.33
33.294000000000004,31.941,33.89,39.404,35.347,36.286
33.28,31.995,33.898,39.291,35.4,36.234
33.266999999999996,32.073,33.904,39.18,35.46,36.173
33.255,32.179,33.908,39.068000000000005,35.528,36.103
33.243,32.321,33.91,38.957,35.599000000000004,36.025999999999996
33.231,32.501999999999995,33.912,38.846,35.675,35.942
33.221,32.73,33.913000000000004,38.735,35.753,35.85
33.211,33.007,33.913000000000004,38.623000000000005,35.830999999999996,35.751999999999995
33.203,33.336,33.912,38.51,35.91,35.648
33.195,33.717,33.91,38.396,35.986999999999995,35.537
33.189,34.147,33.906,38.281,36.061,35.42
33.184,34.623000000000005,33.900999999999996,38.167,36.131,35.298
33.18,35.135999999999996,33.894,38.054,36.196999999999996,35.171
33.176,35.677,33.885,37.944,36.256,35.041
33.172,36.234,33.874,37.835,36.308,34.909
33.168,36.795,33.859,37.729,36.353,34.775999999999996
33.163000000000004,37.346,33.841,37.626,36.39,34.643
33.156,37.875,33.82,37.525999999999996,36.419000000000004,34.51
33.148,38.371,33.796,37.429,36.442,34.378
33.137,38.823,33.769,37.336,36.459,34.247
33.123000000000005,39.224000000000004,33.739000000000004,37.247,36.468,34.116
33.106,39.567,33.708,37.16,36.47,33.986999999999995
33.086999999999996,39.849000000000004,33.676,37.075,36.464,33.86
33.066,40.07,33.644,36.993,36.451,33.736
33.042,40.231,33.611999999999995,36.913000000000004,36.431,33.615
33.016999999999996,40.336,33.582,36.835,36.404,33.498000000000005
32.99,40.388000000000005,33.553000000000004,36.758,36.371,33.385999999999996
32.963,40.393,33.525999999999996,36.681,36.330999999999996,33.278
32.934,40.356,33.501,36.606,36.284,33.175
32.906,40.285,33.478,36.531,36.231,33.077
32.876999999999995,40.185,33.457,36.455999999999996,36.173,32.984
32.848,40.062,33.438,36.382,36.109,32.895
32.82,39.922,33.423,36.311,36.041,32.809
32.792,39.77,33.41,36.241,35.967,32.724000000000004
32.765,39.609,33.4,36.173,35.887,32.64
32.736999999999995,39.444,33.391999999999996,36.11,35.802,32.558
32.709,39.275,33.385,36.051,35.711,32.479
32.68,39.104,33.376,35.999,35.615,32.403
32.649,38.933,33.366,35.953,35.513000000000005,32.330999999999996
32.617,38.762,33.353,35.915,35.407,32.264
32.584,38.592,33.338,35.887,35.296,32.203
32.551,38.424,33.321,35.868,35.183,32.145
32.519,38.258,33.303000000000004,35.86,35.068000000000005,32.091
32.488,38.093,33.284,35.863,34.951,32.04
32.458,37.93,33.266999999999996,35.876999999999995,34.834,31.991999999999997
32.43,37.766999999999996,33.25,35.902,34.717,31.947
32.404,37.607,33.234,35.938,34.6,31.905
32.379,37.446999999999996,33.219,35.983000000000004,34.485,31.868000000000002
32.357,37.29,33.203,36.037,34.372,31.834
32.336999999999996,37.135999999999996,33.189,36.099000000000004,34.260999999999996,31.801
32.318000000000005,36.985,33.176,36.166,34.150999999999996,31.771
32.301,36.84,33.165,36.236999999999995,34.041,31.741999999999997
32.284,36.699,33.157,36.311,33.931,31.715
32.268,36.564,33.152,36.385999999999996,33.819,31.689
32.253,36.436,33.150999999999996,36.461,33.705999999999996,31.664
32.24,36.315,33.154,36.533,33.592,31.64
32.229,36.201,33.159,36.601,33.478,31.616999999999997
32.221,36.095,33.168,36.665,33.364000000000004,31.594
32.214,35.998000000000005,33.18,36.721,33.25,31.57
32.209,35.908,33.195,36.771,33.137,31.546999999999997
32.204,35.827,33.213,36.814,33.024,31.524
32.199,35.754,33.233000000000004,36.849000000000004,32.912,31.502
32.192,35.688,33.254,36.876999999999995,32.8,31.480999999999998
32.184,35.628,33.274,36.897,32.69,31.46
32.174,35.571999999999996,33.294000000000004,36.909,32.583,31.44
32.161,35.519,33.311,36.913000000000004,32.478,31.419
32.147,35.47,33.327,36.908,32.376999999999995,31.398000000000003
32.131,35.421,33.341,36.895,32.282,31.377
32.113,35.374,33.353,36.873000000000005,32.193000000000005,31.355999999999998
32.096,35.325,33.363,36.842,32.111,31.336
32.077,35.274,33.371,36.803000000000004,32.037,31.316999999999997
32.056999999999995,35.222,33.376,36.756,31.969,31.3
32.037,35.168,33.379,36.702,31.908,31.285
32.016,35.113,33.38,36.641999999999996,31.854,31.271
31.995,35.059,33.381,36.575,31.804000000000002,31.26
31.974,35.007,33.381,36.501999999999995,31.754,31.250999999999998
31.953000000000003,34.959,33.383,36.424,31.701999999999998,31.244
31.933000000000003,34.917,33.385,36.342,31.648000000000003,31.239
31.914,34.88,33.39,36.257,31.595,31.236
31.897,34.852,33.397,36.169000000000004,31.545,31.234
31.881999999999998,34.830999999999996,33.407,36.077,31.502,31.230999999999998
31.869,34.82,33.419000000000004,35.984,31.468000000000004,31.226999999999997
31.857,34.82,33.431999999999995,35.89,31.445,31.221999999999998
31.848000000000003,34.83,33.445,35.795,31.435,31.215
31.839000000000002,34.852,33.459,35.698,31.439,31.206
31.833000000000002,34.884,33.47,35.6,31.456,31.195
31.829,34.925,33.48,35.501999999999995,31.485,31.184
31.826999999999998,34.975,33.486999999999995,35.403,31.525,31.171
31.828000000000003,35.033,33.492,35.305,31.573,31.158
31.834,35.098,33.494,35.207,31.625999999999998,31.145
31.843000000000004,35.169000000000004,33.493,35.111999999999995,31.680999999999997,31.131999999999998
31.858,35.243,33.49,35.018,31.736,31.12
31.879,35.318000000000005,33.483000000000004,34.927,31.791,31.109
31.906999999999996,35.394,33.475,34.836999999999996,31.843000000000004,31.098000000000003
31.945999999999998,35.467,33.464,34.749,31.893,31.088
31.999000000000002,35.536,33.45,34.662,31.94,31.076999999999998
32.069,35.598,33.433,34.577,31.983,31.063000000000002
32.163000000000004,35.653,33.414,34.495,32.022,31.046999999999997
32.287,35.7,33.393,34.415,32.056,31.028000000000002
32.448,35.736999999999995,33.371,34.338,32.084,31.006999999999998
32.657,35.763000000000005,33.348,34.264,32.108000000000004,30.983
32.92,35.78,33.325,34.193000000000005,32.128,30.956
33.244,35.786,33.3,34.126999999999995,32.145,30.926
33.632,35.783,33.275999999999996,34.065,32.159,30.893
34.086,35.772,33.253,34.008,32.171,30.858
34.602,35.754,33.23,33.955,32.181999999999995,30.820999999999998
35.173,35.73,33.208,33.906,32.191,30.783
35.79,35.701,33.187,33.86,32.198,30.745
36.441,35.669000000000004,33.167,33.816,32.203,30.706999999999997
37.113,35.635,33.147,33.775,32.205999999999996,30.669
37.791,35.599000000000004,33.128,33.734,32.208,30.633000000000003
38.459,35.562,33.109,33.694,32.21,30.598000000000003
39.105,35.522,33.091,33.656,32.213,30.563000000000002
39.714,35.48,33.073,33.621,32.217,30.531
40.275999999999996,35.433,33.056,33.588,32.222,30.5
40.781,35.381,33.038000000000004,33.558,32.229,30.474
41.224,35.326,33.02,33.531,32.238,30.454
41.601000000000006,35.266999999999996,33.001,33.507,32.249,30.444000000000003
41.908,35.205,32.983000000000004,33.485,32.260999999999996,30.445999999999998
42.148,35.14,32.964,33.467,32.273,30.465
42.321999999999996,35.071,32.945,33.451,32.286,30.508000000000003
42.435,35.001,32.926,33.437,32.299,30.583000000000002
42.492,34.929,32.907,33.424,32.311,30.697
42.498999999999995,34.854,32.889,33.412,32.321,30.858
42.461999999999996,34.777,32.871,33.400999999999996,32.329,31.074
42.388999999999996,34.699,32.855,33.391,32.334,31.35
42.286,34.62,32.84,33.382,32.335,31.691
42.16,34.539,32.83,33.375,32.334,32.1
42.018,34.457,32.824,33.369,32.329,32.575
41.863,34.375,32.826,33.364000000000004,32.32,33.116
41.702,34.291,32.839,33.36,32.308,33.714
41.536,34.208,32.865,33.359,32.293,34.363
41.369,34.125,32.907,33.359,32.272,35.052
41.201,34.044000000000004,32.966,33.359,32.248000000000005,35.766999999999996
41.034,33.965,33.044000000000004,33.36,32.219,36.495
40.869,33.888000000000005,33.141999999999996,33.359,32.188,37.221
40.707,33.813,33.26,33.356,32.155,37.931999999999995
40.548,33.74,33.398,33.352,32.123000000000005,38.615
40.391,33.67,33.554,33.346,32.09,39.258
40.236,33.604,33.728,33.338,32.059,39.85
40.080999999999996,33.539,33.916,33.329,32.03,40.383
39.928000000000004,33.477,34.115,33.32,32.003,40.85
39.775,33.418,34.323,33.31,31.978,41.25
39.622,33.36,34.535,33.301,31.956,41.58
39.47,33.305,34.746,33.292,31.938000000000002,41.843
39.32,33.251,34.952,33.285,31.924,42.042
39.172,33.199,35.148,33.278,31.915,42.181000000000004
39.028,33.15,35.33,33.273,31.913,42.266999999999996
38.89,33.102,35.495,33.269,31.916999999999998,42.306000000000004
38.757,33.056,35.641999999999996,33.266,31.928,42.306000000000004
38.631,33.01,35.77,33.262,31.948,42.271
38.512,32.965,35.876999999999995,33.259,31.978,42.211000000000006
38.400999999999996,32.921,35.964,33.254,32.02,42.13
38.299,32.879,36.032,33.248000000000005,32.077,42.033
38.204,32.84,36.082,33.24,32.153,41.925
38.117,32.803000000000004,36.113,33.23,32.253,41.806000000000004
38.037,32.769,36.128,33.217,32.383,41.678999999999995
37.961,32.739000000000004,36.128,33.202,32.549,41.545
37.89,32.713,36.115,33.184,32.758,41.405
37.821,32.691,36.089,33.164,33.016,41.258
37.753,32.673,36.054,33.141999999999996,33.327,41.107
37.685,32.659,36.01,33.119,33.692,40.951
37.616,32.65,35.96,33.094,34.111,40.791
37.545,32.646,35.907,33.07,34.582,40.628
37.472,32.646,35.851,33.046,35.1,40.461999999999996
37.399,32.652,35.795,33.023,35.658,40.292
37.325,32.662,35.739000000000004,33.0,36.245,40.119
37.251999999999995,32.676,35.684,32.978,36.852,39.943000000000005
37.18,32.693000000000005,35.63,32.955999999999996,37.466,39.763000000000005
37.111999999999995,32.713,35.577,32.934,38.075,39.580999999999996
37.047,32.733000000000004,35.525999999999996,32.912,38.666,39.398
36.986999999999995,32.751999999999995,35.478,32.891,39.23,39.217
36.933,32.771,35.431,32.87,39.756,39.039
36.884,32.79,35.385999999999996,32.85,40.239000000000004,38.863
36.841,32.81,35.345,32.832,40.673,38.69
36.806,32.830999999999996,35.308,32.815,41.055,38.521
36.778,32.854,35.274,32.799,41.382,38.356
36.758,32.878,35.245,32.785,41.657,38.195
36.747,32.904,35.219,32.771,41.88,38.037
36.745,32.93,35.196999999999996,32.757,42.056000000000004,37.883
36.75,32.955999999999996,35.178000000000004,32.742,42.18899999999999,37.733000000000004
36.763000000000005,32.98,35.161,32.727,42.282,37.585
36.784,33.003,35.146,32.711,42.341,37.438
36.811,33.024,35.133,32.695,42.371,37.293
36.844,33.042,35.12,32.679,42.376999999999995,37.146
36.882,33.056999999999995,35.109,32.662,42.361999999999995,37.0
36.923,33.068000000000005,35.097,32.646,42.331,36.852
36.967,33.076,35.084,32.629,42.287,36.704
37.013000000000005,33.080999999999996,35.071,32.613,42.231,36.556
37.059,33.082,35.056999999999995,32.595,42.165,36.407
37.103,33.080999999999996,35.042,32.578,42.091,36.259
37.146,33.078,35.025999999999996,32.56,42.008,36.113
37.188,33.071,35.008,32.542,41.919,35.969
37.228,33.063,34.989000000000004,32.525,41.821000000000005,35.829
37.265,33.052,34.97,32.508,41.716,35.692
37.297,33.041,34.95,32.49,41.603,35.56
37.324,33.03,34.931,32.474000000000004,41.483000000000004,35.435
37.345,33.02,34.913000000000004,32.458,41.358000000000004,35.317
37.357,33.01,34.895,32.442,41.228,35.208
37.36,33.001,34.879,32.427,41.095,35.107
37.355,32.993,34.863,32.414,40.958,35.016999999999996
37.34,32.985,34.848,32.400999999999996,40.82,34.939
37.318000000000005,32.979,34.834,32.389,40.681,34.875
37.289,32.972,34.821999999999996,32.379,40.544000000000004,34.828
37.251999999999995,32.965,34.811,32.37,40.409,34.797
37.208,32.955999999999996,34.802,32.363,40.278,34.783
37.159,32.944,34.796,32.356,40.152,34.787
37.103,32.931,34.794000000000004,32.351,40.03,34.809
37.043,32.915,34.796,32.345,39.911,34.847
36.976,32.898,34.8,32.339,39.796,34.900999999999996
36.904,32.878,34.808,32.330999999999996,39.684,34.97
36.826,32.857,34.817,32.319,39.575,35.052
36.743,32.833,34.829,32.303000000000004,39.468,35.143
36.655,32.808,34.846,32.283,39.361999999999995,35.243
36.562,32.78,34.868,32.26,39.257,35.349000000000004
36.465,32.751999999999995,34.896,32.234,39.152,35.459
36.363,32.723,34.927,32.207,39.047,35.571
36.257,32.696,34.96,32.179,38.942,35.681999999999995
36.148,32.672,34.993,32.150999999999996,38.838,35.793
36.037,32.653,35.025,32.124,38.733000000000004,35.9
35.925,32.644,35.054,32.097,38.629,36.003
35.813,32.646,35.08,32.071999999999996,38.525999999999996,36.1
35.702,32.663000000000004,35.101,32.049,38.425,36.189
35.591,32.7,35.117,32.029,38.327,36.269
35.481,32.760999999999996,35.129,32.01,38.233000000000004,36.336999999999996
35.373000000000005,32.85,35.137,31.993000000000002,38.143,36.393
35.266,32.972,35.141999999999996,31.976999999999997,38.059,36.436
35.161,33.134,35.143,31.962,37.981,36.468
35.058,33.339,35.141,31.949,37.91,36.488
34.958,33.588,35.137,31.936999999999998,37.85,36.497
34.859,33.884,35.131,31.927,37.799,36.494
34.763000000000005,34.225,35.123000000000005,31.921,37.760999999999996,36.477
34.669000000000004,34.606,35.113,31.919,37.734,36.448
34.579,35.022,35.101,31.925,37.72,36.407
34.491,35.465,35.089,31.941,37.718,36.353
34.408,35.924,35.075,31.97,37.73,36.289
34.328,36.389,35.062,32.015,37.754,36.215
34.251,36.849000000000004,35.049,32.082,37.791,36.132
34.176,37.294000000000004,35.036,32.177,37.84,36.042
34.104,37.714,35.024,32.305,37.898,35.946
34.034,38.101,35.010999999999996,32.471,37.965,35.846
33.967,38.449,34.996,32.68,38.037,35.743
33.902,38.751,34.98,32.936,38.115,35.637
33.84,39.005,34.961,33.24,38.196,35.53
33.779,39.208,34.94,33.594,38.279,35.421
33.721,39.361,34.916,33.997,38.361999999999995,35.311
33.664,39.465,34.889,34.445,38.443000000000005,35.2
33.609,39.522,34.861,34.934,38.522,35.089
33.558,39.536,34.83,35.457,38.598,34.978
33.51,39.514,34.797,36.005,38.67,34.867
33.467,39.46,34.763000000000005,36.569,38.736999999999995,34.757
33.429,39.38,34.728,37.135999999999996,38.799,34.647
33.395,39.277,34.694,37.696,38.854,34.538000000000004
33.366,39.158,34.66,38.236999999999995,38.902,34.428000000000004
33.341,39.025,34.628,38.749,38.942,34.317
33.32,38.884,34.597,39.224000000000004,38.973,34.204
33.301,38.738,34.569,39.653,38.995,34.089
33.284,38.59,34.543,40.031,39.007,33.971
33.27,38.442,34.52,40.354,39.007,33.852
33.257,38.296,34.499,40.621,38.995,33.732
33.244,38.152,34.48,40.832,38.972,33.613
33.232,38.012,34.461999999999996,40.989,38.938,33.495
33.218,37.875,34.444,41.095,38.895,33.381
33.205,37.743,34.426,41.153,38.843,33.27
33.192,37.615,34.409,41.169,38.782,33.162
33.18,37.494,34.393,41.15,38.715,33.058
33.17,37.378,34.376999999999995,41.101000000000006,38.64,32.958
33.161,37.269,34.363,41.03,38.56,32.861
33.154,37.165,34.35,40.942,38.475,32.769
33.148,37.066,34.336999999999996,40.842,38.387,32.679
33.143,36.971,34.324,40.734,38.297,32.592
33.138000000000005,36.881,34.312,40.623000000000005,38.205,32.509
33.134,36.795,34.3,40.509,38.111999999999995,32.429
33.13,36.711,34.289,40.396,38.018,32.352
33.125,36.631,34.279,40.282,37.923,32.281
33.118,36.553000000000004,34.271,40.169000000000004,37.827,32.217
33.109,36.478,34.264,40.056999999999995,37.729,32.166
33.099000000000004,36.404,34.259,39.945,37.63,32.124
33.089,36.332,34.255,39.834,37.53,32.091
33.077,36.26,34.255,39.722,37.43,32.065
33.064,36.186,34.257,39.608000000000004,37.33,32.043
33.052,36.111999999999995,34.260999999999996,39.493,37.229,32.021
33.039,36.036,34.265,39.376,37.129,31.997
33.025999999999996,35.958,34.27,39.258,37.028,31.969
33.012,35.879,34.273,39.138000000000005,36.928000000000004,31.936
32.998000000000005,35.799,34.274,39.018,36.827,31.899
32.985,35.719,34.274,38.898,36.726,31.857
32.972,35.64,34.271,38.779,36.625,31.811
32.96,35.564,34.266999999999996,38.661,36.523,31.761
32.948,35.491,34.26,38.547,36.421,31.711
32.937,35.424,34.253,38.436,36.318000000000005,31.66
32.925,35.364000000000004,34.245,38.33,36.214,31.611
32.913000000000004,35.313,34.236999999999995,38.229,36.109,31.565
32.900999999999996,35.273,34.227,38.133,36.003,31.521
32.889,35.244,34.217,38.043,35.896,31.48
32.876999999999995,35.229,34.205999999999996,37.957,35.787,31.443
32.865,35.224000000000004,34.195,37.876,35.676,31.41
32.854,35.231,34.184,37.799,35.564,31.381
32.843,35.25,34.174,37.724000000000004,35.453,31.357
32.832,35.279,34.165,37.653,35.346,31.338
32.82,35.319,34.158,37.585,35.243,31.322
32.806999999999995,35.37,34.153,37.518,35.146,31.31
32.792,35.431,34.15,37.452,35.056,31.301
32.775,35.501,34.149,37.385999999999996,34.973,31.295
32.755,35.578,34.15,37.319,34.895,31.29
32.733000000000004,35.663000000000004,34.152,37.251,34.823,31.285999999999998
32.708,35.753,34.155,37.18,34.756,31.281999999999996
32.681999999999995,35.847,34.158,37.108000000000004,34.694,31.279
32.655,35.941,34.161,37.036,34.635999999999996,31.275
32.629,36.035,34.162,36.963,34.580999999999996,31.271
32.603,36.126,34.163000000000004,36.891,34.531,31.265
32.578,36.213,34.161,36.82,34.484,31.256999999999998
32.553000000000004,36.293,34.158,36.751999999999995,34.44,31.249000000000002
32.527,36.364000000000004,34.152,36.686,34.398,31.24
32.499,36.425,34.143,36.625,34.359,31.230999999999998
32.469,36.473,34.132,36.573,34.321999999999996,31.221999999999998
32.439,36.509,34.119,36.533,34.288000000000004,31.213
32.408,36.531,34.104,36.51,34.256,31.204
32.376999999999995,36.539,34.086,36.501999999999995,34.227,31.195
32.346,36.533,34.067,36.509,34.199,31.186
32.317,36.515,34.046,36.528,34.171,31.176
32.288000000000004,36.484,34.025999999999996,36.556999999999995,34.144,31.165
32.262,36.441,34.005,36.591,34.115,31.153000000000002
32.236,36.387,33.984,36.628,34.086,31.141
32.213,36.321999999999996,33.964,36.664,34.055,31.128
32.193000000000005,36.247,33.943000000000005,36.699,34.024,31.116
32.175,36.165,33.922,36.733000000000004,33.991,31.105
32.159,36.075,33.9,36.764,33.957,31.095
32.145,35.979,33.879,36.794000000000004,33.922,31.086
32.133,35.878,33.858000000000004,36.823,33.885,31.08
32.123000000000005,35.772,33.838,36.85,33.847,31.076
32.113,35.663000000000004,33.819,36.875,33.806,31.074
32.106,35.553000000000004,33.801,36.9,33.765,31.073
32.101,35.441,33.782,36.924,33.722,31.075
32.097,35.328,33.764,36.946999999999996,33.679,31.08
32.095,35.217,33.746,36.968,33.634,31.090999999999998
32.093,35.106,33.728,36.986999999999995,33.589,31.111
32.093,34.998000000000005,33.709,37.005,33.542,31.143
32.092,34.893,33.691,37.023,33.496,31.194000000000003
32.091,34.792,33.672,37.038000000000004,33.449,31.27
32.089,34.695,33.655,37.051,33.404,31.378
32.086,34.602,33.64,37.06,33.359,31.526999999999997
32.082,34.515,33.628,37.064,33.312,31.721999999999998
32.078,34.434,33.619,37.063,33.265,31.971
32.071999999999996,34.359,33.614000000000004,37.055,33.217,32.279
32.065,34.29,33.614000000000004,37.041,33.169000000000004,32.65
32.056999999999995,34.225,33.619,37.02,33.122,33.083
32.047,34.167,33.63,36.992,33.078,33.577
32.036,34.113,33.650999999999996,36.957,33.04,34.128
32.022,34.064,33.683,36.916,33.007,34.727
32.006,34.019,33.732,36.869,32.981,35.366
31.987,33.978,33.798,36.816,32.96,36.033
31.965999999999998,33.941,33.885999999999996,36.758,32.945,36.713
31.941,33.905,33.996,36.695,32.934,37.393
31.915,33.871,34.13,36.628,32.924,38.056999999999995
31.889,33.836999999999996,34.287,36.556999999999995,32.913000000000004,38.691
31.863000000000003,33.802,34.463,36.483000000000004,32.902,39.282
31.839000000000002,33.766999999999996,34.657,36.407,32.887,39.821
31.816999999999997,33.733000000000004,34.865,36.327,32.869,40.299
31.798000000000002,33.7,35.084,36.245,32.847,40.711999999999996
31.783,33.668,35.309,36.161,32.821999999999996,41.056999999999995
31.771,33.638000000000005,35.536,36.074,32.792,41.333999999999996
31.764,33.61,35.762,35.986,32.758,41.544
31.761999999999997,33.584,35.98,35.897,32.718,41.691
31.766,33.56,36.188,35.805,32.674,41.778999999999996
31.775,33.538000000000004,36.38,35.711999999999996,32.626,41.812
31.791999999999998,33.516999999999996,36.554,35.617,32.576,41.799
31.816999999999997,33.496,36.707,35.522,32.524,41.747
31.851999999999997,33.477,36.838,35.426,32.473,41.661
31.899,33.458,36.946,35.332,32.424,41.55
31.963,33.441,37.031,35.24,32.376999999999995,41.418
32.049,33.426,37.094,35.149,32.333,41.271
32.164,33.413000000000004,37.135,35.061,32.295,41.114
32.315,33.402,37.157,34.977,32.260999999999996,40.951
32.509,33.393,37.16,34.895,32.232,40.784
32.751999999999995,33.385999999999996,37.146,34.816,32.209,40.616
33.051,33.381,37.118,34.742,32.189,40.448
33.407,33.376999999999995,37.078,34.671,32.172,40.281
33.823,33.376,37.029,34.604,32.157,40.116
34.295,33.375,36.972,34.542,32.143,39.952
34.818000000000005,33.376,36.91,34.483000000000004,32.128,39.788000000000004
35.385999999999996,33.376999999999995,36.845,34.427,32.113,39.622
35.988,33.379,36.78,34.374,32.095,39.455
36.611999999999995,33.381,36.716,34.323,32.075,39.286
37.246,33.385999999999996,36.654,34.273,32.053000000000004,39.116
37.878,33.393,36.594,34.225,32.027,38.945
38.493,33.403,36.537,34.177,31.998,38.773
39.080999999999996,33.416,36.485,34.129,31.965,38.6
39.629,33.431,36.435,34.08,31.927,38.428000000000004
40.132,33.45,36.388000000000005,34.032,31.884,38.256
40.582,33.472,36.344,33.984,31.834,38.086
40.976000000000006,33.497,36.302,33.938,31.779,37.919000000000004
41.31100000000001,33.524,36.262,33.895,31.72,37.756
41.588,33.555,36.225,33.855,31.656999999999996,37.596
41.806999999999995,33.588,36.191,33.818000000000005,31.592,37.441
41.97,33.624,36.161,33.785,31.526999999999997,37.29
42.081,33.662,36.133,33.756,31.461,37.144
42.144,33.702,36.107,33.729,31.398000000000003,37.003
42.163999999999994,33.741,36.084,33.705,31.336,36.868
42.145,33.779,36.062,33.685,31.276999999999997,36.738
42.093,33.815,36.041,33.668,31.221,36.615
42.013000000000005,33.848,36.021,33.654,31.17,36.497
41.909,33.876,36.001,33.643,31.125999999999998,36.384
41.786,33.9,35.983000000000004,33.633,31.09,36.275
41.648,33.918,35.964,33.625,31.066,36.169000000000004
41.498000000000005,33.931999999999995,35.946,33.619,31.057,36.064
41.338,33.94,35.928000000000004,33.616,31.066,35.957
41.17100000000001,33.943000000000005,35.908,33.615,31.096999999999998,35.843
40.997,33.94,35.885999999999996,33.616,31.156,35.718
40.819,33.93,35.861999999999995,33.618,31.249000000000002,35.580999999999996
40.637,33.916,35.835,33.621,31.381,35.436
40.452,33.897,35.804,33.624,31.561,35.285
40.266,33.876,35.769,33.626999999999995,31.794,35.133
40.078,33.855,35.732,33.63,32.088,34.984
39.889,33.833,35.691,33.632,32.448,34.843
39.699,33.811,35.649,33.632,32.876,34.715
39.509,33.79,35.606,33.631,33.373000000000005,34.601
39.32,33.769,35.561,33.626999999999995,33.935,34.505
39.133,33.748000000000005,35.516,33.62,34.556,34.428000000000004
38.949,33.726,35.471,33.613,35.227,34.371
38.77,33.703,35.427,33.604,35.934,34.333
38.596,33.679,35.385999999999996,33.595,36.665,34.315
38.429,33.655,35.349000000000004,33.586999999999996,37.404,34.315
38.269,33.632,35.315,33.579,38.134,34.333
38.118,33.61,35.287,33.573,38.841,34.368
37.974000000000004,33.588,35.265,33.566,39.509,34.417
37.839,33.568000000000005,35.249,33.561,40.126,34.478
37.713,33.551,35.238,33.555,40.683,34.55
37.596,33.538000000000004,35.233000000000004,33.549,41.174,34.631
37.486,33.531,35.233000000000004,33.541,41.595,34.718
37.384,33.532,35.236999999999995,33.533,41.945,34.81
37.287,33.546,35.243,33.525,42.224,34.905
37.194,33.576,35.251999999999995,33.516,42.437,35.001999999999995
37.104,33.626999999999995,35.262,33.507,42.588,35.099000000000004
37.015,33.705,35.271,33.496,42.683,35.194
36.928000000000004,33.814,35.28,33.484,42.729,35.284
36.842,33.961,35.288000000000004,33.47,42.733999999999995,35.37
36.757,34.15,35.295,33.455,42.705,35.45
36.675,34.384,35.3,33.439,42.648,35.523
36.595,34.666,35.305,33.42,42.568999999999996,35.589
36.519,34.994,35.308,33.4,42.471000000000004,35.648
36.446999999999996,35.367,35.309,33.378,42.361000000000004,35.7
36.38,35.778,35.309,33.353,42.242,35.745
36.319,36.222,35.306999999999995,33.327,42.115,35.783
36.263000000000005,36.689,35.304,33.299,41.985,35.814
36.211999999999996,37.168,35.301,33.269,41.851000000000006,35.836
36.168,37.65,35.298,33.238,41.716,35.849000000000004
36.131,38.123000000000005,35.294000000000004,33.205999999999996,41.578,35.854
36.102,38.578,35.289,33.175,41.44,35.85
36.082,39.005,35.283,33.144,41.299,35.836999999999996
36.07,39.397,35.274,33.114000000000004,41.155,35.816
36.069,39.746,35.260999999999996,33.085,41.008,35.787
36.078,40.05,35.245,33.058,40.858000000000004,35.749
36.097,40.303000000000004,35.225,33.034,40.705,35.703
36.126,40.507,35.203,33.013000000000005,40.548,35.65
36.166,40.659,35.178000000000004,32.996,40.388000000000005,35.589
36.216,40.763000000000005,35.153,32.981,40.225,35.521
36.275,40.82,35.128,32.968,40.061,35.446
36.342,40.834,35.103,32.955,39.898,35.365
36.415,40.809,35.078,32.942,39.736,35.278
36.493,40.749,35.052,32.929,39.578,35.186
36.574,40.66,35.025999999999996,32.915,39.426,35.09
36.656,40.547,34.999,32.9,39.28,34.988
36.736999999999995,40.414,34.972,32.885,39.141999999999996,34.883
36.815,40.265,34.944,32.869,39.012,34.774
36.889,40.104,34.915,32.853,38.889,34.662
36.957,39.936,34.887,32.836,38.774,34.547
37.018,39.763000000000005,34.858000000000004,32.818000000000005,38.665,34.428000000000004
37.071,39.589,34.828,32.799,38.56,34.305
37.116,39.416,34.799,32.778,38.457,34.178000000000004
37.150999999999996,39.247,34.77,32.755,38.356,34.048
37.177,39.083,34.741,32.73,38.254,33.918
37.194,38.923,34.714,32.703,38.15,33.788000000000004
37.202,38.769,34.69,32.675,38.045,33.66
37.202,38.62,34.667,32.646,37.939,33.534
37.194,38.476,34.646,32.617,37.830999999999996,33.41
37.179,38.336,34.628,32.59,37.721,33.288000000000004
37.159,38.199,34.611,32.563,37.61,33.168
37.133,38.059,34.596,32.538000000000004,37.498000000000005,33.052
37.101,37.917,34.580999999999996,32.514,37.385999999999996,32.939
37.064,37.775,34.566,32.491,37.275,32.830999999999996
37.02,37.635,34.551,32.47,37.167,32.727
36.97,37.5,34.534,32.45,37.06,32.628
36.914,37.372,34.516,32.43,36.957,32.535
36.852,37.256,34.498000000000005,32.411,36.857,32.445
36.786,37.152,34.478,32.393,36.763000000000005,32.361
36.715,37.061,34.458,32.376999999999995,36.676,32.281
36.64,36.984,34.437,32.361999999999995,36.596,32.207
36.563,36.919000000000004,34.416,32.348,36.525999999999996,32.138000000000005
36.484,36.865,34.395,32.333,36.466,32.076
36.403,36.819,34.373000000000005,32.318000000000005,36.417,32.018
36.326,36.778,34.351,32.302,36.382,31.965
36.255,36.738,34.328,32.285,36.361,31.915
36.19,36.698,34.306,32.265,36.354,31.868000000000002
36.13,36.654,34.283,32.244,36.361999999999995,31.825
36.074,36.605,34.260999999999996,32.222,36.382,31.785999999999998
36.016,36.55,34.241,32.199,36.415,31.750999999999998
35.957,36.486999999999995,34.223,32.175,36.458,31.719
35.891999999999996,36.416,34.205,32.152,36.510999999999996,31.691999999999997
35.821999999999996,36.338,34.19,32.131,36.571,31.669
35.745,36.253,34.175,32.111999999999995,36.635999999999996,31.649
35.661,36.164,34.16,32.098,36.704,31.631999999999998
35.569,36.071999999999996,34.147,32.092,36.774,31.616999999999997
35.472,35.981,34.135,32.097,36.842,31.603
35.37,35.891999999999996,34.125,32.119,36.909,31.59
35.265,35.806999999999995,34.116,32.162,36.973,31.576
35.159,35.73,34.11,32.233000000000004,37.033,31.56
35.054,35.661,34.105,32.339,37.088,31.541
34.95,35.602,34.102,32.484,37.137,31.519000000000002
34.849000000000004,35.555,34.102,32.675,37.181,31.495
34.751999999999995,35.52,34.103,32.913000000000004,37.217,31.471
34.661,35.496,34.105,33.2,37.246,31.448
34.577,35.483000000000004,34.107,33.537,37.266999999999996,31.428
34.5,35.481,34.11,33.923,37.278,31.41
34.431999999999995,35.486999999999995,34.111999999999995,34.354,37.28,31.395
34.371,35.501999999999995,34.113,34.824,37.273,31.381999999999998
34.317,35.524,34.113,35.326,37.256,31.373
34.268,35.554,34.111999999999995,35.853,37.231,31.366
34.225,35.59,34.108000000000004,36.391,37.195,31.361
34.187,35.631,34.103,36.931999999999995,37.15,31.355
34.154,35.676,34.096,37.463,37.094,31.343000000000004
34.126999999999995,35.724000000000004,34.088,37.975,37.029,31.326999999999998
34.102,35.775,34.079,38.458,36.955999999999996,31.305999999999997
34.080999999999996,35.826,34.068000000000005,38.905,36.875,31.284000000000002
34.064,35.876999999999995,34.055,39.31,36.788000000000004,31.264
34.049,35.927,34.04,39.67,36.695,31.247
34.035,35.976,34.024,39.984,36.596,31.237
34.023,36.023,34.006,40.249,36.493,31.234
34.012,36.067,33.986999999999995,40.468,36.385999999999996,31.238000000000003
34.001999999999995,36.109,33.969,40.643,36.275999999999996,31.25
33.992,36.147,33.95,40.774,36.165,31.267
33.982,36.181999999999995,33.931,40.866,36.052,31.29
33.972,36.213,33.912,40.921,35.938,31.316
33.963,36.239000000000004,33.894,40.944,35.823,31.346
33.955,36.260999999999996,33.876999999999995,40.938,35.708,31.375999999999998
33.946999999999996,36.277,33.861,40.907,35.594,31.406999999999996
33.941,36.287,33.847,40.855,35.482,31.435
33.936,36.292,33.835,40.785,35.371,31.459
33.931,36.291,33.825,40.7,35.262,31.479
33.927,36.285,33.816,40.603,35.154,31.494
33.924,36.272,33.81,40.496,35.049,31.503
33.923,36.253,33.805,40.383,34.946,31.505
33.922,36.228,33.801,40.263000000000005,34.845,31.500999999999998
33.923,36.196,33.798,40.14,34.745,31.489
33.925,36.159,33.796,40.014,34.647,31.471
33.926,36.114000000000004,33.793,39.888000000000005,34.551,31.445
33.928000000000004,36.064,33.791,39.760999999999996,34.458,31.414
33.93,36.009,33.788000000000004,39.634,34.367,31.379
33.931999999999995,35.949,33.785,39.508,34.281,31.340999999999998
33.933,35.884,33.782,39.382,34.199,31.304000000000002
33.933,35.816,33.777,39.258,34.12,31.268
33.933,35.745,33.77,39.135999999999996,34.043,31.234
33.931999999999995,35.672,33.76,39.014,33.968,31.203000000000003
33.93,35.598,33.748000000000005,38.894,33.894,31.174
33.928000000000004,35.524,33.732,38.774,33.821999999999996,31.15
33.924,35.45,33.711999999999996,38.655,33.749,31.131
33.92,35.376999999999995,33.687,38.537,33.677,31.119
33.915,35.304,33.66,38.422,33.605,31.116
33.909,35.232,33.629,38.31,33.534,31.125
33.899,35.16,33.596,38.202,33.463,31.151
33.888000000000005,35.089,33.562,38.099000000000004,33.393,31.199
33.873000000000005,35.016999999999996,33.527,38.001999999999995,33.326,31.278000000000002
33.857,34.946,33.493,37.909,33.260999999999996,31.395
33.839,34.875,33.458,37.821,33.201,31.559
33.82,34.806,33.423,37.736999999999995,33.146,31.776999999999997
33.8,34.738,33.387,37.656,33.098,32.056
33.779,34.672,33.351,37.578,33.056,32.400999999999996
33.756,34.607,33.315,37.503,33.02,32.814
33.732,34.543,33.279,37.431,32.986999999999995,33.293
33.707,34.478,33.242,37.361,32.958,33.835
33.68,34.414,33.205,37.292,32.933,34.431
33.653,34.351,33.168,37.223,32.91,35.071999999999996
33.626,34.288000000000004,33.131,37.153,32.891999999999996,35.745
33.6,34.227,33.095,37.082,32.876999999999995,36.437
33.573,34.169000000000004,33.06,37.010999999999996,32.864000000000004,37.133
33.546,34.113,33.025999999999996,36.941,32.852,37.817
33.519,34.06,32.994,36.873000000000005,32.841,38.474000000000004
33.492,34.012,32.964,36.808,32.829,39.088
33.465,33.967,32.935,36.748000000000005,32.816,39.649
33.438,33.925,32.91,36.691,32.8,40.146
33.412,33.888000000000005,32.889,36.639,32.783,40.576
33.388000000000005,33.853,32.874,36.593,32.763000000000005,40.936
33.365,33.821999999999996,32.865,36.552,32.742,41.226000000000006
33.345,33.794000000000004,32.866,36.516999999999996,32.719,41.446999999999996
33.326,33.77,32.876999999999995,36.488,32.694,41.601000000000006
33.31,33.749,32.902,36.465,32.669000000000004,41.693000000000005
33.295,33.73,32.942,36.45,32.645,41.728
33.283,33.713,33.0,36.441,32.621,41.714
33.27,33.698,33.079,36.439,32.598,41.658
33.257,33.684,33.181,36.444,32.577,41.567
33.244,33.673,33.308,36.455,32.556999999999995,41.449
33.23,33.664,33.458,36.473,32.541,41.31
33.215,33.655,33.631,36.498000000000005,32.525999999999996,41.157
33.198,33.647,33.824,36.531,32.512,40.993
33.18,33.638000000000005,34.034,36.569,32.499,40.823
33.16,33.629,34.257,36.614000000000004,32.485,40.65
33.139,33.62,34.49,36.663000000000004,32.469,40.477
33.115,33.611,34.729,36.717,32.452,40.305
33.089,33.601,34.968,36.774,32.431999999999995,40.135999999999996
33.061,33.592,35.204,36.833,32.409,39.97
33.031,33.584,35.433,36.893,32.382,39.806
32.999,33.577,35.650999999999996,36.952,32.353,39.645
32.965,33.571,35.853,37.008,32.321,39.486
32.93,33.566,36.036,37.062,32.286,39.328
32.895,33.562,36.196999999999996,37.111,32.25,39.169000000000004
32.86,33.559,36.333,37.157,32.211,39.01
32.825,33.558,36.444,37.198,32.171,38.85
32.792,33.559,36.529,37.234,32.13,38.689
32.76,33.563,36.591,37.265,32.089,38.528
32.731,33.568000000000005,36.63,37.289,32.05,38.366
32.704,33.575,36.649,37.306,32.014,38.204
32.678000000000004,33.583,36.649,37.316,31.980999999999998,38.044000000000004
32.654,33.593,36.634,37.318000000000005,31.951,37.885999999999996
32.632,33.605,36.604,37.311,31.923000000000002,37.731
32.613,33.617,36.562,37.296,31.898000000000003,37.580999999999996
32.597,33.63,36.51,37.273,31.874000000000002,37.436
32.586999999999996,33.643,36.457,37.242,31.853,37.296
32.584,33.656,36.41,37.202,31.834,37.163000000000004
32.59,33.667,36.371,37.156,31.816,37.034
32.608000000000004,33.676,36.339,37.102,31.798000000000002,36.91
32.641999999999996,33.681999999999995,36.314,37.043,31.781,36.791
32.696999999999996,33.684,36.292,36.979,31.764,36.679
32.778,33.681,36.271,36.91,31.746,36.571999999999996
32.893,33.672,36.248000000000005,36.839,31.726,36.471
33.049,33.659,36.221,36.764,31.706,36.374
33.251,33.64,36.187,36.685,31.686,36.279
33.504,33.616,36.146,36.599000000000004,31.668000000000003,36.187
33.814,33.588,36.096,36.507,31.651999999999997,36.094
34.179,33.556999999999995,36.039,36.41,31.638,36.001999999999995
34.601,33.523,35.977,36.311,31.625,35.908
35.075,33.486,35.911,36.211999999999996,31.613000000000003,35.812
35.596,33.446,35.843,36.114000000000004,31.601,35.713
36.152,33.404,35.775999999999996,36.02,31.587,35.613
36.735,33.36,35.711999999999996,35.93,31.57,35.513000000000005
37.330999999999996,33.316,35.652,35.845,31.551,35.414
37.928000000000004,33.272,35.598,35.765,31.529,35.317
38.512,33.229,35.549,35.692,31.503,35.225
39.071999999999996,33.19,35.506,35.624,31.473000000000003,35.138000000000005
39.596,33.153,35.469,35.56,31.439,35.056999999999995
40.078,33.121,35.438,35.499,31.403000000000002,34.984
40.508,33.095,35.414,35.441,31.365,34.92
40.884,33.076,35.397,35.385,31.325,34.867
41.2,33.066,35.384,35.333,31.283,34.826
41.456,33.066,35.375,35.282,31.24,34.796
41.653,33.079,35.37,35.232,31.197,34.778
41.793,33.11,35.364000000000004,35.181999999999995,31.155,34.773
41.88,33.161,35.358000000000004,35.133,31.114,34.781
41.92,33.239000000000004,35.349000000000004,35.086,31.074,34.8
41.917,33.347,35.336999999999996,35.039,31.034000000000002,34.830999999999996
41.876000000000005,33.492,35.321999999999996,34.994,30.997,34.872
41.803000000000004,33.678000000000004,35.304,34.951,30.96,34.922
41.70399999999999,33.908,35.282,34.91,30.925,34.978
41.583,34.183,35.257,34.869,30.892,35.04
41.446000000000005,34.501999999999995,35.228,34.83,30.86,35.109
41.29600000000001,34.861999999999995,35.198,34.792,30.829,35.183
41.137,35.259,35.167,34.756,30.801,35.264
40.973,35.687,35.135,34.72,30.774,35.35
40.806999999999995,36.135999999999996,35.103,34.687,30.750999999999998,35.438
40.64,36.597,35.073,34.654,30.730999999999998,35.527
40.474000000000004,37.058,35.044000000000004,34.622,30.715999999999998,35.615
40.311,37.510999999999996,35.018,34.589,30.708000000000002,35.7
40.150999999999996,37.944,34.996,34.556999999999995,30.71,35.78
39.994,38.35,34.976,34.523,30.725,35.854
39.843,38.721,34.96,34.489000000000004,30.758000000000003,35.921
39.696,39.051,34.948,34.454,30.815,35.979
39.553000000000004,39.338,34.939,34.419000000000004,30.903000000000002,36.027
39.415,39.577,34.933,34.384,31.026,36.066
39.28,39.77,34.931,34.349000000000004,31.193,36.093
39.149,39.915,34.933,34.316,31.409000000000002,36.109
39.02,40.015,34.938,34.285,31.680999999999997,36.114000000000004
38.895,40.071999999999996,34.946999999999996,34.255,32.014,36.108000000000004
38.771,40.09,34.96,34.226,32.411,36.091
38.650999999999996,40.074,34.976,34.199,32.872,36.065
38.534,40.028,34.996,34.173,33.394,36.029
38.42,39.958,35.021,34.148,33.972,35.983000000000004
38.311,39.868,35.048,34.123000000000005,34.597,35.928000000000004
38.207,39.765,35.078,34.098,35.259,35.865
38.109,39.650999999999996,35.111,34.073,35.945,35.794000000000004
38.016999999999996,39.531,35.144,34.047,36.639,35.718
37.929,39.407,35.178000000000004,34.021,37.328,35.637
37.847,39.281,35.211999999999996,33.994,37.997,35.551
37.77,39.155,35.248000000000005,33.968,38.633,35.461999999999996
37.698,39.031,35.285,33.941,39.222,35.369
37.629,38.909,35.324,33.914,39.755,35.274
37.565,38.789,35.366,33.888000000000005,40.226,35.176
37.501999999999995,38.671,35.409,33.863,40.629,35.076
37.441,38.555,35.452,33.836999999999996,40.963,34.976
37.381,38.441,35.495,33.812,41.23,34.874
37.321,38.327,35.537,33.786,41.434,34.77
37.26,38.213,35.577,33.76,41.57899999999999,34.663000000000004
37.196999999999996,38.101,35.615,33.733000000000004,41.67,34.552
37.134,37.991,35.649,33.705999999999996,41.713,34.437
37.07,37.882,35.681,33.68,41.714,34.32
37.006,37.774,35.709,33.654,41.681000000000004,34.2
36.941,37.667,35.734,33.629,41.618,34.077
36.879,37.562,35.756,33.604,41.531000000000006,33.953
36.819,37.458,35.774,33.58,41.426,33.828
36.765,37.356,35.789,33.556999999999995,41.306999999999995,33.701
36.716,37.255,35.8,33.534,41.178000000000004,33.575
36.674,37.158,35.806,33.512,41.04,33.449
36.64,37.064,35.809,33.49,40.896,33.326
36.613,36.973,35.806999999999995,33.468,40.75,33.205999999999996
36.595,36.885,35.801,33.445,40.602,33.09
36.584,36.799,35.789,33.422,40.453,32.978
36.580999999999996,36.714,35.772,33.399,40.304,32.871
36.584,36.632,35.749,33.374,40.155,32.77
36.595,36.551,35.72,33.347,40.004,32.676
36.611999999999995,36.471,35.686,33.319,39.854,32.589
36.635999999999996,36.391,35.647,33.29,39.703,32.509
36.666,36.311,35.601,33.260999999999996,39.551,32.435
36.701,36.231,35.551,33.231,39.398,32.367
36.74,36.15,35.495,33.201,39.245,32.304
36.783,36.068000000000005,35.436,33.171,39.092,32.244
36.828,35.986999999999995,35.374,33.141,38.94,32.188
36.874,35.907,35.309,33.11,38.789,32.134
36.92,35.83,35.244,33.079,38.638000000000005,32.083
36.964,35.757,35.18,33.048,38.49,32.035
37.005,35.689,35.117,33.016999999999996,38.343,31.989
37.042,35.628,35.055,32.988,38.198,31.947
37.071999999999996,35.576,34.996,32.96,38.055,31.906
37.094,35.532,34.938,32.934,37.914,31.869
37.109,35.499,34.884,32.91,37.775,31.835
37.115,35.478,34.833,32.889,37.635999999999996,31.803
37.111999999999995,35.469,34.786,32.87,37.497,31.775
37.1,35.473,34.742,32.855,37.357,31.75
37.079,35.488,34.702,32.843,37.215,31.729
37.049,35.514,34.666,32.835,37.071999999999996,31.711
37.010999999999996,35.549,34.635,32.829,36.927,31.695999999999998
36.964,35.592,34.607,32.826,36.779,31.683000000000003
36.911,35.641,34.582,32.823,36.629,31.671
36.854,35.693000000000005,34.559,32.821,36.477,31.662
36.792,35.749,34.538000000000004,32.818000000000005,36.324,31.654
36.728,35.805,34.518,32.815,36.171,31.647
36.66,35.861999999999995,34.498000000000005,32.81,36.02,31.642
36.589,35.915,34.479,32.802,35.871,31.638
36.516,35.965,34.461,32.792,35.727,31.634
36.439,36.01,34.444,32.778,35.589,31.631
36.359,36.048,34.427,32.760999999999996,35.458,31.628
36.275999999999996,36.079,34.412,32.741,35.336999999999996,31.625
36.189,36.104,34.399,32.717,35.228,31.622
36.098,36.122,34.389,32.691,35.132,31.621
36.005,36.133,34.382,32.661,35.05,31.62
35.91,36.139,34.376999999999995,32.63,34.984,31.62
35.814,36.139,34.376,32.597,34.934,31.622
35.717,36.135,34.378,32.565,34.9,31.625
35.621,36.128,34.383,32.532,34.884,31.629
35.525999999999996,36.116,34.391,32.5,34.885999999999996,31.635
35.431999999999995,36.101,34.403,32.469,34.904,31.643
35.341,36.083,34.419000000000004,32.439,34.937,31.653000000000002
35.251,36.061,34.438,32.412,34.984,31.664
35.164,36.035,34.46,32.385999999999996,35.043,31.675
35.08,36.004,34.483000000000004,32.363,35.113,31.686
34.997,35.969,34.508,32.341,35.193000000000005,31.695
34.917,35.929,34.532,32.32,35.28,31.705
34.838,35.885,34.555,32.301,35.373000000000005,31.714000000000002
34.762,35.836999999999996,34.576,32.283,35.469,31.721999999999998
34.689,35.783,34.594,32.266,35.569,31.730999999999998
34.619,35.725,34.608000000000004,32.25,35.67,31.739
34.553000000000004,35.662,34.618,32.235,35.771,31.747
34.491,35.595,34.623000000000005,32.222,35.871,31.755
34.433,35.525,34.624,32.209,35.967,31.761
34.379,35.451,34.621,32.196999999999996,36.056999999999995,31.767
34.329,35.374,34.615,32.187,36.139,31.773000000000003
34.282,35.295,34.606,32.178000000000004,36.214,31.778000000000002
34.239000000000004,35.215,34.595,32.173,36.279,31.781999999999996
34.198,35.135999999999996,34.580999999999996,32.171,36.335,31.784000000000002
34.159,35.058,34.566,32.173,36.38,31.783
34.123000000000005,34.981,34.548,32.183,36.414,31.778000000000002
34.09,34.907,34.53,32.201,36.437,31.768
34.059,34.835,34.510999999999996,32.232,36.45,31.754
34.031,34.766,34.491,32.279,36.454,31.737
34.006,34.699,34.472,32.348,36.45,31.717
33.984,34.634,34.454,32.443000000000005,36.437,31.695999999999998
33.965,34.57,34.437,32.569,36.414,31.673000000000002
33.949,34.507,34.42,32.73,36.378,31.648000000000003
33.934,34.445,34.403,32.93,36.33,31.622
33.92,34.384,34.385,33.173,36.272,31.596999999999998
33.908,34.324,34.366,33.459,36.205999999999996,31.574
33.896,34.265,34.346,33.788000000000004,36.132,31.554000000000002
33.884,34.208,34.324,34.157,36.053000000000004,31.537
33.873000000000005,34.153,34.301,34.563,35.971,31.524
33.861999999999995,34.099000000000004,34.277,35.001999999999995,35.889,31.515
33.852,34.046,34.253,35.468,35.806,31.508000000000003
33.843,33.995,34.227,35.953,35.725,31.503
33.835,33.945,34.2,36.448,35.644,31.499000000000002
33.827,33.898,34.171,36.944,35.565,31.496
33.821999999999996,33.852,34.141999999999996,37.431,35.486,31.493000000000002
33.817,33.81,34.111,37.9,35.406,31.488000000000003
33.813,33.769,34.080999999999996,38.344,35.326,31.48
33.808,33.729,34.051,38.757,35.245,31.469
33.805,33.691,34.022,39.131,35.162,31.454
33.802,33.656,33.995,39.464,35.076,31.434
33.801,33.623000000000005,33.97,39.751999999999995,34.988,31.41
33.806,33.592,33.948,39.994,34.896,31.383000000000003
33.819,33.562,33.927,40.189,34.803000000000004,31.353
33.84,33.535,33.906,40.339,34.707,31.322
33.868,33.509,33.885999999999996,40.445,34.609,31.289
33.898,33.485,33.866,40.512,34.51,31.256
33.927,33.463,33.845,40.543,34.409,31.221999999999998
33.954,33.443000000000005,33.825,40.543,34.306,31.189
33.975,33.425,33.804,40.516999999999996,34.201,31.155
33.988,33.409,33.784,40.47,34.097,31.122
33.993,33.394,33.765,40.405,33.994,31.09
33.988,33.382,33.746,40.327,33.893,31.058000000000003
33.975,33.372,33.728,40.239000000000004,33.794000000000004,31.028000000000002
33.954,33.365,33.711,40.143,33.699,31.000999999999998
33.926,33.36,33.695,40.042,33.608000000000004,30.98
