Trial 1:0back,Trial 2:2back,Trial 3:3back,Trial 4:2back,Trial 5:3back,Trial 6:0back
33.146,33.47,41.273,35.646,32.881,36.478
33.68,33.39,42.11,35.644,32.834,36.516999999999996
34.298,33.31,42.897,35.632,32.792,36.539
34.994,33.231,43.618,35.61,32.751999999999995,36.545
35.759,33.153,44.263999999999996,35.577,32.714,36.535
36.580999999999996,33.076,44.825,35.534,32.678000000000004,36.512
37.446,33.0,45.29600000000001,35.481,32.644,36.476
38.336,32.926,45.674,35.42,32.611999999999995,36.429
39.23,32.854,45.961000000000006,35.352,32.583,36.37
40.11,32.784,46.157,35.278,32.556,36.3
40.955999999999996,32.716,46.266999999999996,35.201,32.533,36.219
41.75,32.65,46.297,35.119,32.514,36.126999999999995
42.479,32.586999999999996,46.255,35.036,32.496,36.027
43.13,32.525999999999996,46.148999999999994,34.95,32.482,35.918
43.695,32.467,45.986999999999995,34.861999999999995,32.469,35.802
44.167,32.409,45.778,34.773,32.459,35.681999999999995
44.545,32.355,45.533,34.683,32.452,35.558
44.828,32.304,45.25899999999999,34.591,32.446,35.431
45.021,32.255,44.966,34.5,32.443000000000005,35.301
45.128,32.21,44.66,34.409,32.44,35.169000000000004
45.158,32.167,44.347,34.318000000000005,32.438,35.036
45.117,32.128,44.033,34.228,32.434,34.902
45.015,32.092,43.72,34.138000000000005,32.429,34.769
44.861000000000004,32.058,43.412,34.048,32.421,34.635
44.663999999999994,32.025999999999996,43.108999999999995,33.957,32.412,34.503
44.431000000000004,31.996,42.81100000000001,33.866,32.400999999999996,34.373000000000005
44.17,31.969,42.52,33.775,32.388000000000005,34.245
43.887,31.943,42.233999999999995,33.684,32.375,34.12
43.588,31.919,41.952,33.595,32.361,33.998000000000005
43.278999999999996,31.895,41.674,33.505,32.347,33.88
42.961999999999996,31.873,41.398999999999994,33.414,32.333,33.765
42.643,31.853,41.126999999999995,33.321999999999996,32.319,33.654
42.323,31.834,40.856,33.229,32.306999999999995,33.546
42.004,31.816,40.585,33.135999999999996,32.298,33.441
41.687,31.8,40.315,33.042,32.293,33.339
41.372,31.785,40.044000000000004,32.95,32.295,33.239000000000004
41.06,31.771,39.774,32.859,32.306999999999995,33.141999999999996
40.751,31.759,39.504,32.772,32.332,33.046
40.445,31.749000000000002,39.235,32.686,32.375,32.95
40.141999999999996,31.741,38.968,32.602,32.441,32.856
39.841,31.736,38.704,32.52,32.537,32.763000000000005
39.542,31.734,38.442,32.44,32.668,32.673
39.247,31.734,38.184,32.361,32.841,32.586999999999996
38.955,31.736,37.93,32.283,33.062,32.505
38.668,31.74,37.68,32.205999999999996,33.336999999999996,32.428000000000004
38.385999999999996,31.745,37.433,32.13,33.669000000000004,32.357
38.109,31.750999999999998,37.19,32.055,34.058,32.292
37.838,31.758000000000003,36.953,31.983,34.504,32.233000000000004
37.573,31.766,36.721,31.912,35.004,32.178000000000004
37.315,31.774,36.496,31.845,35.551,32.128
37.062,31.783,36.278,31.78,36.138000000000005,32.082
36.814,31.79,36.068000000000005,31.718000000000004,36.754,32.038000000000004
36.569,31.796999999999997,35.865,31.659000000000002,37.387,31.997
36.327,31.803,35.67,31.6,38.024,31.959
36.089,31.809,35.485,31.541999999999998,38.653,31.925
35.853,31.813000000000002,35.31,31.483,39.26,31.894000000000002
35.623000000000005,31.816,35.147,31.425,39.834,31.865
35.398,31.816999999999997,34.996,31.366,40.364000000000004,31.837
35.181999999999995,31.816999999999997,34.86,31.309,40.839,31.81
34.978,31.815,34.74,31.252,41.254,31.783
34.785,31.811,34.635,31.195999999999998,41.603,31.756999999999998
34.607,31.805,34.547,31.142,41.883,31.729
34.443000000000005,31.799,34.476,31.089000000000002,42.095,31.701
34.295,31.791999999999998,34.42,31.038,42.24,31.671999999999997
34.164,31.785999999999998,34.382,30.987,42.318999999999996,31.644000000000002
34.05,31.78,34.36,30.939,42.338,31.616
33.955,31.78,34.354,30.893,42.302,31.590999999999998
33.878,31.788,34.365,30.85,42.215,31.569000000000003
33.82,31.808000000000003,34.391999999999996,30.81,42.085,31.55
33.78,31.846999999999998,34.433,30.773000000000003,41.918,31.535999999999998
33.76,31.910999999999998,34.488,30.738000000000003,41.72,31.525
33.759,32.007,34.555,30.706,41.497,31.517
33.778,32.144,34.633,30.675,41.257,31.511999999999997
33.816,32.329,34.72,30.645,41.003,31.509
33.873000000000005,32.571,34.817,30.616,40.742,31.508000000000003
33.949,32.875,34.921,30.588,40.477,31.506999999999998
34.042,33.247,35.032,30.561,40.211,31.506999999999998
34.153,33.69,35.148,30.535,39.946999999999996,31.508000000000003
34.278,34.203,35.269,30.511,39.686,31.509
34.415,34.786,35.391999999999996,30.487,39.428000000000004,31.511999999999997
34.564,35.431999999999995,35.516,30.465,39.173,31.515
34.72,36.132,35.64,30.444000000000003,38.922,31.519000000000002
34.882,36.876,35.762,30.425,38.674,31.524
35.047,37.653,35.879,30.406,38.431,31.528000000000002
35.211999999999996,38.446999999999996,35.992,30.388,38.19,31.531
35.375,39.243,36.098,30.371,37.953,31.535
35.534,40.023,36.195,30.354,37.72,31.541
35.687,40.774,36.281,30.339000000000002,37.491,31.551
35.830999999999996,41.482,36.354,30.326999999999998,37.265,31.566
35.964,42.135,36.414,30.315,37.042,31.589000000000002
36.083,42.723,36.459,30.304000000000002,36.82,31.623
36.188,43.238,36.489000000000004,30.291999999999998,36.6,31.67
36.275999999999996,43.677,36.503,30.278000000000002,36.381,31.737
36.347,44.036,36.503,30.261999999999997,36.163000000000004,31.829
36.399,44.315,36.49,30.243000000000002,35.946,31.954
36.431999999999995,44.516999999999996,36.464,30.22,35.731,32.119
36.446999999999996,44.644,36.428000000000004,30.195999999999998,35.516999999999996,32.332
36.444,44.703,36.382,30.169,35.304,32.602
36.423,44.699,36.328,30.141,35.093,32.937
36.385,44.638000000000005,36.265,30.112,34.884,33.341
36.332,44.528,36.195,30.084,34.676,33.817
36.264,44.376000000000005,36.118,30.06,34.47,34.365
36.181,44.18899999999999,36.032,30.041999999999998,34.266999999999996,34.979
36.085,43.974,35.94,30.035,34.066,35.653
35.978,43.738,35.841,30.043000000000003,33.869,36.376
35.86,43.485,35.736999999999995,30.070999999999998,33.678000000000004,37.135
35.736,43.221000000000004,35.629,30.125,33.493,37.911
35.606,42.949,35.516,30.213,33.316,38.687
35.474000000000004,42.672,35.4,30.340999999999998,33.148,39.446
35.341,42.391999999999996,35.281,30.519000000000002,32.991,40.173
35.207,42.111000000000004,35.16,30.755,32.846,40.853
35.074,41.828,35.036,31.054000000000002,32.713,41.477
34.941,41.545,34.911,31.424,32.596,42.034
34.806999999999995,41.261,34.786,31.868000000000002,32.494,42.518
34.673,40.975,34.661,32.384,32.41,42.925
34.537,40.689,34.537,32.971,32.344,43.253
34.4,40.400999999999996,34.416,33.623000000000005,32.298,43.504
34.263000000000005,40.111999999999995,34.296,34.330999999999996,32.272,43.678999999999995
34.125,39.821999999999996,34.18,35.085,32.268,43.783
33.988,39.532,34.066,35.872,32.285,43.821999999999996
33.853,39.242,33.957,36.678000000000004,32.323,43.802
33.722,38.953,33.851,37.486999999999995,32.381,43.731
33.594,38.664,33.75,38.285,32.457,43.614
33.47,38.376999999999995,33.653,39.058,32.549,43.46
33.348,38.093,33.558,39.79,32.658,43.273999999999994
33.228,37.813,33.465,40.471,32.781,43.065
33.11,37.538000000000004,33.374,41.09,32.916,42.836999999999996
32.993,37.269,33.285,41.638999999999996,33.061,42.595
32.876,37.007,33.196999999999996,42.111999999999995,33.214,42.345
32.759,36.751,33.11,42.506,33.371,42.089
32.644,36.5,33.024,42.82,33.532,41.83
32.53,36.254,32.939,43.053999999999995,33.694,41.571000000000005
32.42,36.013000000000005,32.855,43.213,33.857,41.312
32.313,35.775999999999996,32.772,43.3,34.016999999999996,41.053999999999995
32.211999999999996,35.543,32.69,43.321000000000005,34.174,40.797
32.116,35.315,32.609,43.283,34.325,40.542
32.027,35.091,32.53,43.193000000000005,34.469,40.287
31.945,34.873000000000005,32.453,43.058,34.605,40.034
31.866999999999997,34.661,32.379,42.887,34.733000000000004,39.782
31.795,34.455999999999996,32.306999999999995,42.685,34.85,39.53
31.726999999999997,34.26,32.239000000000004,42.458,34.958,39.28
31.664,34.075,32.175,42.214,35.054,39.031
31.604,33.902,32.115,41.956,35.14,38.785
31.551,33.743,32.056999999999995,41.69,35.214,38.542
31.502,33.598,32.003,41.42100000000001,35.277,38.305
31.46,33.47,31.951999999999998,41.151,35.329,38.073
31.423000000000002,33.36,31.903000000000002,40.883,35.369,37.848
31.391,33.268,31.858,40.62,35.399,37.632
31.363000000000003,33.196999999999996,31.815,40.361,35.418,37.428000000000004
31.337,33.145,31.774,40.107,35.425,37.239000000000004
31.313000000000002,33.113,31.736,39.859,35.421,37.064
31.289,33.1,31.7,39.616,35.408,36.900999999999996
31.266,33.104,31.666,39.376999999999995,35.385,36.746
31.241,33.126999999999995,31.634,39.141999999999996,35.354,36.596
31.215999999999998,33.167,31.605,38.909,35.317,36.446999999999996
31.191,33.223,31.578000000000003,38.678000000000004,35.275,36.297
31.166,33.297,31.554000000000002,38.448,35.228,36.141999999999996
31.142,33.387,31.534000000000002,38.219,35.177,35.983000000000004
31.12,33.492,31.517,37.991,35.122,35.819
31.101,33.611999999999995,31.503,37.763000000000005,35.061,35.650999999999996
31.084,33.743,31.491,37.535,34.993,35.478
31.07,33.885,31.480999999999998,37.306999999999995,34.916,35.303000000000004
31.059,34.035,31.471999999999998,37.079,34.832,35.13
31.051,34.191,31.463,36.85,34.746,34.961999999999996
31.046999999999997,34.349000000000004,31.454,36.62,34.659,34.802
31.046,34.508,31.445,36.391999999999996,34.576,34.653
31.048000000000002,34.665,31.434,36.165,34.497,34.519
31.054000000000002,34.818000000000005,31.423000000000002,35.94,34.426,34.402
31.065,34.968,31.412,35.717,34.365,34.303000000000004
31.08,35.111999999999995,31.4,35.496,34.312,34.224000000000004
31.098000000000003,35.249,31.389,35.28,34.268,34.167
31.118000000000002,35.378,31.379,35.07,34.233000000000004,34.133
31.139,35.497,31.369,34.866,34.204,34.121
31.16,35.605,31.36,34.67,34.181,34.134
31.180999999999997,35.701,31.351,34.485,34.162,34.168
31.201,35.783,31.344,34.311,34.144,34.225
31.219,35.85,31.337,34.150999999999996,34.128,34.303000000000004
31.235,35.903,31.331999999999997,34.005,34.111,34.399
31.25,35.94,31.33,33.876,34.092,34.513000000000005
31.261999999999997,35.963,31.331999999999997,33.764,34.069,34.641
31.272,35.97,31.337,33.67,34.041,34.781
31.279,35.963,31.346999999999998,33.595,34.007,34.929
31.284000000000002,35.943000000000005,31.36,33.539,33.967,35.084
31.285999999999998,35.91,31.377,33.501,33.919000000000004,35.243
31.285999999999998,35.865,31.398000000000003,33.482,33.866,35.400999999999996
31.285,35.81,31.421999999999997,33.482,33.806,35.556
31.283,35.746,31.447,33.5,33.742,35.705999999999996
31.281999999999996,35.674,31.473000000000003,33.538000000000004,33.674,35.85
31.285999999999998,35.597,31.499000000000002,33.593,33.603,35.986
31.296,35.513000000000005,31.524,33.666,33.529,36.114000000000004
31.316,35.425,31.546,33.755,33.452,36.231
31.351,35.333,31.566999999999997,33.857,33.373000000000005,36.336
31.406,35.239000000000004,31.585,33.973,33.294000000000004,36.429
31.488000000000003,35.143,31.6,34.1,33.217,36.51
31.607,35.045,31.612,34.236999999999995,33.14,36.578
31.772,34.944,31.622,34.384,33.067,36.631
31.991,34.843,31.63,34.539,32.997,36.67
32.274,34.74,31.636,34.7,32.929,36.693000000000005
32.626999999999995,34.635999999999996,31.642,34.867,32.865,36.698
33.056999999999995,34.53,31.647,35.037,32.802,36.687
33.567,34.424,31.653000000000002,35.21,32.743,36.657
34.158,34.316,31.659000000000002,35.384,32.685,36.611999999999995
34.828,34.209,31.666,35.556,32.628,36.553000000000004
35.569,34.1,31.674,35.723,32.574,36.482
36.374,33.992,31.682,35.885,32.52,36.402
37.228,33.885,31.69,36.042,32.468,36.315
38.116,33.78,31.698,36.194,32.418,36.222
39.018,33.677,31.706,36.339,32.369,36.126999999999995
39.914,33.577,31.714000000000002,36.474000000000004,32.321999999999996,36.03
40.785,33.48,31.72,36.595,32.278,35.93
41.611999999999995,33.385999999999996,31.726,36.699,32.238,35.829
42.376999999999995,33.294000000000004,31.730999999999998,36.785,32.205,35.725
43.067,33.203,31.733,36.852,32.181999999999995,35.618
43.67100000000001,33.114000000000004,31.733,36.899,32.171,35.508
44.18,33.024,31.729,36.927,32.179,35.396
44.591,32.935,31.721,36.937,32.208,35.283
44.903,32.846,31.706999999999997,36.928000000000004,32.266999999999996,35.169000000000004
45.118,32.758,31.689,36.902,32.361,35.054
45.24,32.672,31.668000000000003,36.861999999999995,32.498000000000005,34.939
45.276,32.588,31.644000000000002,36.809,32.685,34.825
45.235,32.506,31.619,36.746,32.928000000000004,34.711999999999996
45.125,32.428000000000004,31.593000000000004,36.675,33.232,34.601
44.957,32.354,31.566999999999997,36.597,33.597,34.492
44.742,32.284,31.543000000000003,36.512,34.024,34.383
44.489,32.22,31.522,36.422,34.512,34.275999999999996
44.206,32.159,31.506,36.328,35.055,34.17
43.902,32.102,31.496,36.23,35.646,34.064
43.583999999999996,32.048,31.495,36.129,36.275999999999996,33.959
43.257,31.994,31.505,36.028,36.934,33.855
42.926,31.941999999999997,31.531,35.927,37.607,33.753
42.593,31.892,31.576,35.828,38.28,33.652
42.25899999999999,31.840999999999998,31.646,35.731,38.94,33.554
41.928000000000004,31.791999999999998,31.746,35.635999999999996,39.571999999999996,33.458
41.599,31.744,31.883000000000003,35.543,40.165,33.365
41.275,31.699,32.063,35.452,40.707,33.275999999999996
40.954,31.655,32.293,35.363,41.188,33.192
40.639,31.613000000000003,32.58,35.274,41.604,33.111
40.328,31.575,32.931,35.187,41.948,33.033
40.023,31.54,33.349000000000004,35.102,42.22,32.957
39.725,31.509,33.84,35.019,42.42,32.883
39.431,31.480999999999998,34.403,34.938,42.549,32.81
39.144,31.455,35.037,34.859,42.611999999999995,32.739000000000004
38.861,31.432,35.736999999999995,34.782,42.614,32.67
38.582,31.410999999999998,36.497,34.705,42.56100000000001,32.604
38.305,31.392,37.306999999999995,34.63,42.458,32.542
38.031,31.373,38.153,34.555,42.31399999999999,32.482
37.759,31.355999999999998,39.022,34.48,42.135,32.426
37.489000000000004,31.338,39.898,34.406,41.928999999999995,32.375
37.223,31.322,40.763000000000005,34.330999999999996,41.703,32.33
36.958,31.305999999999997,41.603,34.259,41.461999999999996,32.289
36.696,31.291,42.402,34.188,41.213,32.254
36.437,31.276999999999997,43.146,34.118,40.96,32.224000000000004
36.181999999999995,31.264,43.824,34.051,40.707,32.199
35.931,31.252,44.426,33.986,40.455999999999996,32.178000000000004
35.684,31.24,44.946000000000005,33.924,40.209,32.163000000000004
35.444,31.23,45.378,33.864000000000004,39.969,32.154
35.211999999999996,31.221999999999998,45.721000000000004,33.806,39.735,32.152
34.991,31.215,45.975,33.751999999999995,39.508,32.154
34.782,31.21,46.141999999999996,33.702,39.287,32.162
34.586999999999996,31.206999999999997,46.226000000000006,33.655,39.071999999999996,32.172
34.41,31.206,46.233999999999995,33.611,38.863,32.184
34.25,31.206,46.172,33.569,38.659,32.196999999999996
34.11,31.209,46.05,33.528,38.46,32.211
33.988,31.213,45.876000000000005,33.488,38.268,32.227
33.885999999999996,31.22,45.659,33.443000000000005,38.08,32.244
33.803000000000004,31.229,45.407,33.394,37.896,32.262
33.739000000000004,31.241,45.129,33.34,37.717,32.28
33.694,31.254,44.833,33.284,37.54,32.299
33.667,31.267,44.523,33.227,37.365,32.318000000000005
33.658,31.281,44.206,33.171,37.192,32.339
33.669000000000004,31.294,43.88399999999999,33.116,37.019,32.359
33.699,31.305999999999997,43.56,33.063,36.846,32.38
33.749,31.316,43.236999999999995,33.013000000000005,36.671,32.400999999999996
33.818000000000005,31.325,42.916000000000004,32.966,36.494,32.421
33.907,31.331999999999997,42.597,32.922,36.315,32.439
34.013000000000005,31.337,42.282,32.882,36.134,32.454
34.135999999999996,31.34,41.971000000000004,32.845,35.953,32.467
34.274,31.340999999999998,41.663000000000004,32.81,35.772,32.476
34.425,31.342,41.36,32.775999999999996,35.591,32.483000000000004
34.586,31.342,41.06,32.742,35.412,32.486999999999995
34.753,31.342,40.764,32.708,35.236,32.491
34.925,31.344,40.47,32.673,35.062,32.494
35.096,31.346999999999998,40.178000000000004,32.638000000000005,34.893,32.498000000000005
35.266,31.353,39.888000000000005,32.602,34.73,32.506
35.431,31.362,39.601,32.564,34.571999999999996,32.521
35.59,31.372,39.316,32.525,34.421,32.546
35.74,31.384,39.034,32.483000000000004,34.279,32.584
35.879,31.398000000000003,38.757,32.44,34.146,32.641999999999996
36.006,31.414,38.484,32.396,34.024,32.725
36.12,31.434,38.217,32.351,33.914,32.84
36.22,31.459,37.954,32.306,33.817,32.996
36.305,31.491,37.698,32.263000000000005,33.733000000000004,33.2
36.373000000000005,31.535999999999998,37.446999999999996,32.224000000000004,33.664,33.46
36.424,31.598000000000003,37.202,32.193000000000005,33.608000000000004,33.78
36.458,31.683000000000003,36.964,32.172,33.565,34.166
36.474000000000004,31.8,36.733000000000004,32.167,33.535,34.618
36.471,31.956999999999997,36.510999999999996,32.181999999999995,33.519,35.135
36.451,32.164,36.296,32.223,33.515,35.709
36.413000000000004,32.431,36.09,32.298,33.524,36.334
36.358000000000004,32.766,35.894,32.413000000000004,33.546,36.998000000000005
36.286,33.178000000000004,35.707,32.575,33.58,37.688
36.199,33.671,35.529,32.79,33.626,38.39
36.098,34.248000000000005,35.361999999999995,33.064,33.683,39.088
35.985,34.906,35.204,33.400999999999996,33.751,39.768
35.861999999999995,35.64,35.054,33.805,33.827,40.415
35.731,36.44,34.913000000000004,34.275,33.913000000000004,41.018
35.594,37.295,34.778,34.81,34.007,41.566
35.454,38.189,34.65,35.405,34.107,42.052
35.311,39.104,34.527,36.052,34.214,42.468
35.17,40.022,34.411,36.741,34.326,42.813
35.029,40.925,34.301,37.461,34.442,43.083999999999996
34.89,41.794,34.2,38.2,34.562,43.282
34.754,42.613,34.109,38.945,34.683,43.411
34.619,43.367,34.029,39.68,34.806,43.474
34.485,44.044,33.964,40.393,34.928000000000004,43.479
34.353,44.635,33.915,41.07,35.048,43.431000000000004
34.221,45.13399999999999,33.884,41.701,35.164,43.339
34.09,45.538000000000004,33.873000000000005,42.275,35.274,43.208999999999996
33.96,45.847,33.884,42.784,35.376999999999995,43.043
33.830999999999996,46.065,33.916,43.223,35.47,42.847
33.703,46.195,33.97,43.586999999999996,35.554,42.628
33.576,46.246,34.045,43.876000000000005,35.626999999999995,42.391999999999996
33.45,46.226000000000006,34.14,44.091,35.689,42.144
33.327,46.143,34.251999999999995,44.235,35.738,41.888000000000005
33.205,46.007,34.379,44.31399999999999,35.774,41.629
33.086,45.827,34.516999999999996,44.332,35.796,41.371
32.97,45.61,34.664,44.295,35.806,41.114
32.856,45.365,34.816,44.21,35.803000000000004,40.861999999999995
32.745,45.098,34.969,44.083,35.789,40.613
32.635999999999996,44.815,35.119,43.92100000000001,35.764,40.369
32.531,44.52,35.262,43.729,35.729,40.126999999999995
32.428000000000004,44.218,35.396,43.511,35.686,39.887
32.329,43.913000000000004,35.518,43.273,35.635,39.648
32.233000000000004,43.607,35.626,43.019,35.578,39.41
32.141,43.303999999999995,35.718,42.753,35.516,39.171
32.054,43.001999999999995,35.795,42.479,35.45,38.933
31.971,42.701,35.855,42.2,35.381,38.695
31.894000000000002,42.403,35.899,41.92,35.309,38.457
31.823,42.105,35.927,41.638999999999996,35.234,38.219
31.756,41.808,35.939,41.358999999999995,35.157,37.981
31.691999999999997,41.511,35.937,41.08,35.078,37.744
31.631,41.213,35.921,40.803000000000004,34.997,37.507
31.572,40.915,35.891999999999996,40.527,34.913000000000004,37.273
31.515,40.618,35.851,40.251999999999995,34.827,37.042
31.461,40.321,35.799,39.979,34.738,36.814
31.409000000000002,40.025999999999996,35.736,39.707,34.647,36.589
31.361,39.734,35.664,39.435,34.554,36.367
31.315,39.445,35.584,39.165,34.458,36.150999999999996
31.272,39.159,35.496,38.897,34.361,35.94
31.232,38.878,35.4,38.631,34.262,35.733000000000004
31.195999999999998,38.603,35.299,38.368,34.163000000000004,35.533
31.164,38.334,35.192,38.106,34.063,35.338
31.135,38.073,35.08,37.845,33.961999999999996,35.148
31.111,37.818000000000005,34.964,37.585,33.861,34.965
31.092,37.57,34.845,37.325,33.758,34.787
31.076999999999998,37.33,34.723,37.064,33.654,34.614000000000004
31.065,37.096,34.599000000000004,36.804,33.549,34.446999999999996
31.055,36.868,34.475,36.543,33.444,34.286
31.049,36.646,34.349000000000004,36.282,33.339,34.131
31.045,36.431,34.221,36.022,33.235,33.983000000000004
31.044,36.221,34.094,35.760999999999996,33.133,33.845
31.046999999999997,36.018,33.965,35.503,33.034,33.717
31.054000000000002,35.821,33.836999999999996,35.249,32.938,33.601
31.064,35.631,33.707,35.001,32.845,33.495
31.076,35.448,33.578,34.760999999999996,32.755,33.402
31.090999999999998,35.272,33.448,34.532,32.668,33.321999999999996
31.105999999999998,35.105,33.32,34.313,32.586,33.255
31.123,34.946,33.193000000000005,34.107,32.507,33.203
31.141,34.799,33.068000000000005,33.916,32.433,33.167
31.159000000000002,34.663000000000004,32.945,33.739000000000004,32.363,33.147
31.177,34.539,32.826,33.579,32.296,33.143
31.193,34.428000000000004,32.711,33.436,32.233000000000004,33.155
31.208000000000002,34.332,32.603,33.312,32.173,33.181999999999995
31.221,34.251999999999995,32.499,33.205,32.115,33.223
31.233,34.188,32.400999999999996,33.116,32.06,33.275999999999996
31.241999999999997,34.141,32.306999999999995,33.043,32.007,33.338
31.25,34.113,32.216,32.986,31.956,33.408
31.256,34.104,32.126,32.944,31.906,33.484
31.261999999999997,34.113,32.037,32.917,31.859,33.562
31.268,34.141,31.947,32.905,31.813000000000002,33.641
31.274,34.187,31.857,32.907,31.768,33.72
31.279,34.249,31.765,32.925,31.724,33.796
31.283,34.325,31.673000000000002,32.958,31.68,33.868
31.285,34.414,31.579,33.005,31.636999999999997,33.935
31.284000000000002,34.514,31.485,33.067,31.594,33.995
31.278000000000002,34.625,31.392,33.141999999999996,31.553,34.045
31.269000000000002,34.744,31.302,33.23,31.514,34.086
31.256999999999998,34.868,31.213,33.329,31.479,34.115
31.244,34.995,31.128,33.44,31.448,34.133
31.232,35.124,31.046999999999997,33.559,31.424,34.139
31.221999999999998,35.253,30.968000000000004,33.686,31.410999999999998,34.135
31.215999999999998,35.379,30.891,33.817,31.412,34.121
31.215999999999998,35.501999999999995,30.816999999999997,33.951,31.433000000000003,34.099000000000004
31.221999999999998,35.621,30.747,34.085,31.480999999999998,34.069
31.236,35.736,30.680999999999997,34.217,31.563000000000002,34.031
31.256999999999998,35.845,30.619,34.346,31.685,33.988
31.287,35.946,30.561,34.471,31.855,33.937
31.331,36.039,30.509,34.59,32.079,33.881
31.393,36.123000000000005,30.462,34.701,32.361,33.818000000000005
31.483,36.198,30.42,34.803000000000004,32.705999999999996,33.75
31.608,36.260999999999996,30.384,34.895,33.114000000000004,33.678000000000004
31.776999999999997,36.313,30.353,34.977,33.584,33.601
32.001,36.353,30.326999999999998,35.047,34.114000000000004,33.521
32.288000000000004,36.381,30.305,35.106,34.695,33.437
32.647,36.396,30.288,35.153,35.319,33.349000000000004
33.083,36.397,30.273000000000003,35.189,35.975,33.259
33.6,36.385999999999996,30.261999999999997,35.213,36.650999999999996,33.166
34.196999999999996,36.363,30.253,35.227,37.333,33.071999999999996
34.872,36.327,30.245,35.23,38.007,32.978
35.617,36.278,30.239,35.223,38.658,32.885999999999996
36.42,36.217,30.233,35.208,39.274,32.797
37.268,36.146,30.228,35.185,39.844,32.711999999999996
38.145,36.065,30.223000000000003,35.154,40.357,32.633
39.032,35.975,30.218000000000004,35.117,40.809,32.561
39.911,35.876999999999995,30.213,35.075,41.193000000000005,32.496
40.762,35.773,30.208000000000002,35.03,41.507,32.439
41.568000000000005,35.663000000000004,30.203000000000003,34.982,41.751999999999995,32.39
42.312,35.549,30.199,34.934,41.928999999999995,32.351
42.982,35.431,30.195,34.885999999999996,42.04,32.32
43.567,35.311,30.191,34.836999999999996,42.091,32.299
44.06,35.189,30.186999999999998,34.789,42.086000000000006,32.286
44.457,35.065,30.183000000000003,34.739000000000004,42.032,32.282
44.757,34.94,30.178,34.687,41.937,32.285
44.961000000000006,34.815,30.174,34.631,41.806000000000004,32.294000000000004
45.074,34.691,30.17,34.571999999999996,41.646,32.306999999999995
45.103,34.57,30.166999999999998,34.509,41.465,32.326
45.055,34.45,30.164,34.442,41.266999999999996,32.348
44.94,34.333,30.164,34.369,41.056999999999995,32.374
44.766999999999996,34.219,30.165,34.292,40.841,32.403
44.545,34.109,30.166999999999998,34.21,40.621,32.437
44.283,34.0,30.171999999999997,34.123000000000005,40.398,32.473
43.99,33.894,30.178,34.033,40.176,32.513000000000005
43.674,33.789,30.185,33.94,39.953,32.556
43.342,33.683,30.191999999999997,33.844,39.731,32.603
43.0,33.578,30.201,33.748000000000005,39.51,32.655
42.653,33.472,30.21,33.650999999999996,39.288000000000004,32.711999999999996
42.305,33.366,30.22,33.556999999999995,39.065,32.775
41.96,33.260999999999996,30.23,33.467,38.842,32.844
41.621,33.156,30.241,33.381,38.617,32.918
41.288999999999994,33.052,30.253,33.3,38.391999999999996,32.998000000000005
40.965,32.95,30.266,33.225,38.167,33.084
40.649,32.851,30.28,33.155,37.944,33.175
40.341,32.753,30.294,33.091,37.725,33.27
40.039,32.657,30.308000000000003,33.03,37.510999999999996,33.366
39.744,32.561,30.320999999999998,32.972,37.305,33.464
39.455,32.468,30.334,32.915,37.106,33.561
39.171,32.375,30.346,32.858000000000004,36.916,33.658
38.89,32.283,30.358,32.801,36.734,33.755
38.61,32.194,30.368000000000002,32.744,36.559,33.851
38.332,32.108000000000004,30.377,32.685,36.39,33.945
38.054,32.025999999999996,30.385,32.625,36.226,34.035
37.777,31.948,30.392,32.562,36.065,34.121
37.501,31.875,30.398000000000003,32.496,35.906,34.2
37.227,31.809,30.401999999999997,32.425,35.749,34.27
36.955,31.749000000000002,30.406,32.351,35.592,34.329
36.688,31.695,30.408,32.274,35.436,34.376
36.425,31.647,30.409000000000002,32.194,35.279,34.409
36.17,31.604,30.409000000000002,32.111999999999995,35.121,34.429
35.923,31.566999999999997,30.41,32.029,34.963,34.437
35.683,31.533,30.410999999999998,31.947,34.804,34.434
35.452,31.502,30.412,31.864,34.645,34.42
35.229,31.475,30.415,31.781999999999996,34.488,34.397
35.015,31.449,30.419,31.701999999999998,34.334,34.364000000000004
34.812,31.425,30.424,31.624000000000002,34.184,34.324
34.619,31.4,30.430999999999997,31.55,34.043,34.275
34.439,31.375,30.438000000000002,31.480999999999998,33.912,34.221
34.273,31.349,30.447,31.416999999999998,33.792,34.162
34.123000000000005,31.323,30.456,31.36,33.687,34.097
33.988,31.296,30.465,31.309,33.596,34.03
33.871,31.269000000000002,30.474,31.266,33.52,33.96
33.772,31.243000000000002,30.482,31.23,33.46,33.891
33.693000000000005,31.217,30.49,31.201,33.416,33.826
33.634,31.191999999999997,30.499000000000002,31.18,33.387,33.766999999999996
33.596,31.17,30.506999999999998,31.165,33.376,33.721
33.579,31.151,30.516,31.154,33.382,33.689
33.582,31.136,30.525,31.148000000000003,33.403,33.678000000000004
33.606,31.123,30.534000000000002,31.145,33.441,33.692
33.650999999999996,31.113000000000003,30.544,31.145,33.493,33.736
33.716,31.105999999999998,30.555999999999997,31.147,33.56,33.818000000000005
33.8,31.103,30.570999999999998,31.15,33.641,33.942
33.906,31.103,30.592,31.154,33.734,34.114000000000004
34.04,31.105999999999998,30.621,31.156,33.839,34.336999999999996
34.203,31.112,30.662,31.158,33.955,34.613
34.39,31.121,30.721999999999998,31.158,34.08,34.944
34.596,31.131,30.805999999999997,31.158,34.213,35.328
34.815,31.142,30.921999999999997,31.156999999999996,34.352,35.762
35.04,31.154,31.078000000000003,31.158,34.495,36.239000000000004
35.264,31.165,31.281,31.163,34.641,36.75
35.481,31.177,31.539,31.174,34.787,37.287
35.687,31.189,31.858,31.197,34.933,37.84
35.876,31.199,32.24,31.236,35.077,38.398
36.046,31.209,32.689,31.296999999999997,35.218,38.951
36.194,31.217,33.203,31.386999999999997,35.353,39.488
36.319,31.225,33.78,31.513,35.481,39.998000000000005
36.42,31.232,34.414,31.680999999999997,35.6,40.47
36.499,31.241,35.097,31.898000000000003,35.709,40.896
36.555,31.25,35.82,32.171,35.808,41.268
36.59,31.259,36.568000000000005,32.505,35.894,41.582
36.606,31.271,37.329,32.903,35.966,41.833
36.605,31.285,38.085,33.366,36.025,42.02
36.588,31.311,38.821,33.891,36.069,42.145
36.558,31.35,39.522,34.474000000000004,36.1,42.208
36.515,31.403000000000002,40.173,35.109,36.117,42.215
36.461999999999996,31.465999999999998,40.764,35.786,36.122,42.17
36.399,31.533,41.284,36.496,36.117,42.08
36.327,31.601,41.725,37.227,36.102,41.95
36.246,31.662,42.085,37.964,36.078,41.787
36.158,31.714000000000002,42.361999999999995,38.696,36.047,41.597
36.063,31.753,42.556000000000004,39.409,36.009,41.385
35.961,31.776999999999997,42.672,40.091,35.965,41.158
35.853,31.785999999999998,42.714,40.729,35.916,40.918
35.741,31.78,42.691,41.315,35.861999999999995,40.671
35.624,31.761,42.608000000000004,41.839,35.803000000000004,40.42
35.501999999999995,31.732,42.476000000000006,42.295,35.74,40.165
35.378,31.694000000000003,42.302,42.678000000000004,35.674,39.91
35.25,31.65,42.095,42.986000000000004,35.604,39.655
35.12,31.601999999999997,41.863,43.221000000000004,35.531,39.4
34.989000000000004,31.553,41.613,43.38399999999999,35.455,39.146
34.856,31.505,41.353,43.479,35.376,38.894
34.721,31.462,41.086999999999996,43.512,35.295,38.643
34.586999999999996,31.425,40.821,43.488,35.211,38.393
34.452,31.4,40.559,43.413000000000004,35.125,38.145
34.318000000000005,31.388,40.302,43.294,35.037,37.898
34.185,31.395,40.054,43.137,34.948,37.652
34.056,31.426,39.814,42.948,34.859,37.406
33.929,31.488000000000003,39.584,42.735,34.77,37.161
33.806999999999995,31.589000000000002,39.363,42.501999999999995,34.683,36.917
33.689,31.736,39.15,42.256,34.599000000000004,36.677
33.576,31.936999999999998,38.945,42.001000000000005,34.519,36.442
33.469,32.201,38.748000000000005,41.74100000000001,34.444,36.211
33.368,32.536,38.556,41.479,34.374,35.985
33.273,32.946999999999996,38.371,41.217,34.31,35.765
33.181999999999995,33.44,38.19,40.955999999999996,34.251999999999995,35.55
33.093,34.016,38.012,40.696999999999996,34.201,35.342
33.005,34.674,37.838,40.44,34.156,35.139
32.917,35.408,37.665,40.185,34.117,34.941
32.826,36.211999999999996,37.494,39.931999999999995,34.084,34.748000000000005
32.733000000000004,37.071999999999996,37.323,39.68,34.056,34.56
32.637,37.973,37.153,39.43,34.033,34.378
32.54,38.899,36.984,39.181,34.014,34.203
32.441,39.829,36.815,38.933,33.999,34.037
32.342,40.744,36.648,38.686,33.99,33.881
32.244,41.626999999999995,36.482,38.438,33.986,33.735
32.15,42.458,36.318000000000005,38.191,33.989000000000004,33.601
32.059,43.224,36.157,37.943000000000005,33.999,33.48
31.973000000000003,43.91,36.0,37.694,34.014,33.373000000000005
31.892,44.50899999999999,35.846,37.444,34.033,33.282
31.815,45.013999999999996,35.696999999999996,37.195,34.053000000000004,33.209
31.744,45.422,35.553000000000004,36.945,34.074,33.154
31.677,45.733000000000004,35.416,36.696,34.094,33.116
31.615,45.951,35.285,36.449,34.111999999999995,33.096
31.559,46.081,35.164,36.204,34.128,33.093
31.506999999999998,46.129,35.051,35.961,34.139,33.108000000000004
31.462,46.105,34.948,35.722,34.144,33.139
31.421999999999997,46.016000000000005,34.857,35.485,34.143,33.187
31.388,45.871,34.775999999999996,35.251999999999995,34.134,33.25
31.36,45.68,34.705999999999996,35.022,34.119,33.328
31.335,45.45,34.649,34.797,34.099000000000004,33.419000000000004
31.314,45.191,34.603,34.576,34.071999999999996,33.523
31.296,44.908,34.571,34.361999999999995,34.041,33.637
31.281,44.608999999999995,34.551,34.154,34.008,33.76
31.267,44.3,34.545,33.951,33.973,33.889
31.254,43.983999999999995,34.554,33.756,33.939,34.023
31.243000000000002,43.665,34.578,33.567,33.909,34.158
31.234,43.347,34.617,33.389,33.885999999999996,34.293
31.226999999999997,43.031000000000006,34.669000000000004,33.222,33.874,34.426
31.221999999999998,42.718,34.733000000000004,33.068000000000005,33.878,34.555
31.219,42.408,34.81,32.929,33.904,34.68
31.22,42.101000000000006,34.897,32.806,33.958,34.8
31.221999999999998,41.797,34.996,32.7,34.046,34.915
31.226999999999997,41.497,35.102,32.611,34.173,35.022
31.233,41.198,35.216,32.539,34.346,35.123000000000005
31.239,40.902,35.335,32.485,34.568000000000005,35.214
31.246,40.608000000000004,35.457,32.448,34.841,35.297
31.252,40.315,35.579,32.429,35.167,35.37
31.258000000000003,40.024,35.7,32.428000000000004,35.544000000000004,35.431999999999995
31.265,39.735,35.818000000000005,32.444,35.967,35.484
31.272,39.446,35.93,32.478,36.431,35.525
31.28,39.16,36.035,32.528,36.928000000000004,35.555
31.29,38.876999999999995,36.131,32.594,37.446999999999996,35.574
31.3,38.596,36.218,32.674,37.978,35.582
31.309,38.32,36.293,32.766,38.508,35.579
31.32,38.048,36.355,32.87,39.028,35.567
31.33,37.782,36.405,32.982,39.525,35.547
31.34,37.522,36.442,33.101,39.992,35.518
31.351,37.266999999999996,36.466,33.226,40.42,35.482
31.361,37.016999999999996,36.478,33.355,40.803000000000004,35.439
31.371,36.774,36.479,33.486,41.135,35.389
31.381,36.535,36.468,33.617,41.413999999999994,35.333
31.389,36.303000000000004,36.446,33.748000000000005,41.638999999999996,35.27
31.396,36.077,36.415,33.878,41.81,35.202
31.401999999999997,35.858000000000004,36.373000000000005,34.007,41.928999999999995,35.128
31.406,35.645,36.324,34.133,42.0,35.05
31.41,35.439,36.266999999999996,34.255,42.026,34.968
31.414,35.239000000000004,36.204,34.372,42.013000000000005,34.884
31.418000000000003,35.047,36.135,34.483000000000004,41.964,34.798
31.424,34.863,36.062,34.586999999999996,41.886,34.711
31.432,34.689,35.984,34.685,41.782,34.621
31.444000000000003,34.525999999999996,35.903,34.775,41.658,34.529
31.462,34.374,35.82,34.855,41.52,34.435
31.489,34.235,35.735,34.926,41.376999999999995,34.339
31.528000000000002,34.11,35.648,34.986999999999995,41.235,34.243
31.585,33.998000000000005,35.561,35.037,41.093999999999994,34.146
31.666,33.902,35.473,35.077,40.953,34.048
31.776,33.821999999999996,35.384,35.108000000000004,40.81,33.948
31.925,33.758,35.295,35.129,40.663000000000004,33.846
32.122,33.711,35.204,35.141,40.508,33.742
32.373000000000005,33.681999999999995,35.111999999999995,35.143,40.345,33.635999999999996
32.688,33.672,35.019,35.135,40.172,33.53
33.073,33.68,34.926,35.115,39.991,33.424
33.532,33.707,34.833,35.086,39.8,33.318000000000005
34.065,33.751999999999995,34.74,35.047,39.6,33.214
34.673,33.815,34.647,34.999,39.395,33.109
35.35,33.895,34.555,34.944,39.184,33.005
36.088,33.989000000000004,34.464,34.881,38.971,32.902
36.876999999999995,34.097,34.374,34.813,38.758,32.801
37.703,34.217,34.286,34.744,38.546,32.703
38.551,34.348,34.199,34.676,38.339,32.608000000000004
39.403,34.486999999999995,34.114000000000004,34.61,38.137,32.516999999999996
40.243,34.633,34.031,34.545,37.943000000000005,32.43
41.053000000000004,34.782,33.949,34.481,37.757,32.345
41.821999999999996,34.935,33.868,34.415,37.58,32.263000000000005
42.545,35.088,33.788000000000004,34.347,37.412,32.181
43.21,35.239000000000004,33.708,34.274,37.254,32.101
43.806999999999995,35.385999999999996,33.626999999999995,34.196,37.104,32.021
44.321999999999996,35.527,33.546,34.111,36.961999999999996,31.944000000000003
44.747,35.662,33.461999999999996,34.021,36.824,31.868000000000002
45.077,35.787,33.376999999999995,33.926,36.692,31.795
45.306999999999995,35.902,33.289,33.827,36.563,31.726
45.438,36.005,33.201,33.724000000000004,36.437,31.66
45.475,36.095,33.111999999999995,33.617,36.313,31.6
45.424,36.171,33.023,33.51,36.191,31.545
45.292,36.231,32.935,33.402,36.07,31.495
45.091,36.275,32.849000000000004,33.295,35.951,31.448
44.83,36.303000000000004,32.765,33.19,35.834,31.404
44.52,36.315,32.683,33.088,35.721,31.363000000000003
44.172,36.311,32.604,32.988,35.611999999999995,31.326
43.797,36.294000000000004,32.528,32.891999999999996,35.509,31.291999999999998
43.405,36.263000000000005,32.455,32.798,35.413000000000004,31.261
43.001999999999995,36.221,32.385,32.707,35.324,31.230999999999998
42.597,36.169000000000004,32.318000000000005,32.619,35.244,31.203000000000003
42.196000000000005,36.107,32.254,32.535,35.174,31.176
41.802,36.037,32.192,32.454,35.116,31.151
41.419,35.958,32.133,32.378,35.07,31.128
41.048,35.871,32.076,32.305,35.038000000000004,31.111
40.69,35.778,32.02,32.236,35.02,31.1
40.345,35.68,31.965999999999998,32.17,35.015,31.098000000000003
40.012,35.576,31.913,32.107,35.025,31.111
39.689,35.468,31.862,32.046,35.051,31.141
39.375,35.356,31.81,31.988000000000003,35.091,31.198
39.068000000000005,35.241,31.76,31.933000000000003,35.147,31.285999999999998
38.768,35.123000000000005,31.71,31.88,35.216,31.415
38.473,35.004,31.660999999999998,31.829,35.299,31.593000000000004
38.183,34.884,31.613000000000003,31.781,35.394,31.829
37.896,34.764,31.566,31.736,35.498000000000005,32.129
37.614000000000004,34.645,31.52,31.691999999999997,35.611,32.5
37.334,34.529,31.476,31.649,35.729,32.944
37.058,34.415,31.434,31.609,35.852,33.463
36.785,34.303000000000004,31.394000000000002,31.570999999999998,35.976,34.054
36.516,34.194,31.355999999999998,31.534000000000002,36.1,34.711999999999996
36.25,34.086999999999996,31.320999999999998,31.499000000000002,36.221,35.429
35.99,33.981,31.289,31.465,36.336999999999996,36.194
35.736,33.876999999999995,31.261,31.433000000000003,36.445,36.993
35.49,33.772,31.238000000000003,31.401,36.544000000000004,37.811
35.253,33.667,31.218000000000004,31.37,36.632,38.632
35.025999999999996,33.561,31.204,31.338,36.705999999999996,39.439
34.81,33.455999999999996,31.193,31.305999999999997,36.766,40.217
34.606,33.35,31.186999999999998,31.275,36.81,40.951
34.415,33.244,31.186,31.244,36.838,41.626999999999995
34.236999999999995,33.139,31.186999999999998,31.214000000000002,36.85,42.235
34.071999999999996,33.035,31.191999999999997,31.186,36.844,42.768
33.92,32.933,31.201,31.158,36.823,43.221000000000004
33.781,32.834,31.211,31.131,36.787,43.591
33.656,32.74,31.223000000000003,31.105999999999998,36.736999999999995,43.88
33.546,32.652,31.235,31.081999999999997,36.674,44.089
33.453,32.57,31.246,31.059,36.599000000000004,44.223
33.378,32.493,31.254,31.039,36.514,44.288000000000004
33.323,32.42,31.26,31.022,36.419000000000004,44.288999999999994
33.29,32.35,31.261999999999997,31.01,36.318000000000005,44.233999999999995
33.279,32.281,31.26,31.003,36.211,44.13
33.292,32.213,31.253,31.004,36.099000000000004,43.985
33.328,32.146,31.241999999999997,31.017,35.985,43.808
33.388000000000005,32.078,31.226999999999997,31.048000000000002,35.869,43.605
33.469,32.010999999999996,31.209,31.1,35.751999999999995,43.382
33.569,31.943,31.189,31.180999999999997,35.634,43.144
33.689,31.875999999999998,31.168000000000003,31.296999999999997,35.516,42.898
33.824,31.81,31.147,31.456,35.398,42.646
33.974000000000004,31.747,31.125999999999998,31.663,35.281,42.391999999999996
34.135999999999996,31.686,31.108,31.926,35.166,42.137
34.309,31.629,31.093000000000004,32.253,35.051,41.883
34.491,31.575,31.081,32.648,34.937,41.631
34.681,31.525,31.072,33.113,34.823,41.379
34.875,31.48,31.065,33.649,34.71,41.13
35.071999999999996,31.439,31.059,34.253,34.596,40.881
35.268,31.401,31.053,34.92,34.483000000000004,40.634
35.461999999999996,31.368000000000002,31.046,35.64,34.372,40.387
35.652,31.338,31.039,36.405,34.262,40.141999999999996
35.834,31.311,31.03,37.2,34.154,39.899
36.004,31.285999999999998,31.02,38.010999999999996,34.047,39.659
36.16,31.263,31.008000000000003,38.824,33.941,39.423
36.298,31.241,30.996,39.623000000000005,33.835,39.189
36.414,31.221,30.983,40.391999999999996,33.73,38.959
36.506,31.201999999999998,30.97,41.118,33.626,38.734
36.571999999999996,31.184,30.958000000000002,41.788999999999994,33.523,38.512
36.611999999999995,31.166,30.945999999999998,42.394,33.424,38.294000000000004
36.625,31.15,30.935,42.925,33.328,38.077
36.613,31.135,30.924,43.376999999999995,33.236,37.859
36.578,31.121,30.913,43.747,33.149,37.635999999999996
36.523,31.109,30.904,44.035,33.066,37.411
36.449,31.099,30.895,44.243,32.986999999999995,37.184
36.361,31.093000000000004,30.885,44.376999999999995,32.913000000000004,36.958
36.262,31.089000000000002,30.875999999999998,44.44,32.845,36.734
36.153,31.088,30.866,44.43899999999999,32.781,36.515
36.037,31.09,30.855,44.382,32.723,36.303000000000004
35.917,31.093000000000004,30.844,44.275,32.669000000000004,36.101
35.793,31.098000000000003,30.831,44.125,32.62,35.908
35.666,31.105,30.819000000000003,43.942,32.576,35.725
35.536,31.112,30.807,43.73,32.536,35.552
35.404,31.12,30.794,43.497,32.499,35.387
35.27,31.129,30.779,43.248000000000005,32.467,35.23
35.133,31.138,30.763,42.986999999999995,32.438,35.08
34.994,31.148000000000003,30.746,42.718,32.413000000000004,34.938
34.852,31.159000000000002,30.732,42.443999999999996,32.391,34.804
34.709,31.17,30.721999999999998,42.166000000000004,32.373000000000005,34.678000000000004
34.565,31.183000000000003,30.718000000000004,41.888000000000005,32.359,34.56
34.419000000000004,31.197,30.723000000000003,41.611000000000004,32.349000000000004,34.452
34.273,31.211,30.741,41.333999999999996,32.343,34.354
34.126999999999995,31.226,30.776999999999997,41.058,32.341,34.27
33.983000000000004,31.239,30.834,40.782,32.343,34.2
33.839,31.252,30.92,40.508,32.348,34.146
33.698,31.263,31.041999999999998,40.235,32.356,34.108000000000004
33.559,31.273000000000003,31.209,39.961999999999996,32.367,34.086999999999996
33.423,31.281999999999996,31.429000000000002,39.69,32.379,34.080999999999996
33.291,31.291,31.712,39.417,32.391999999999996,34.091
33.162,31.299,32.065,39.144,32.405,34.117
33.035,31.307,32.495,38.872,32.418,34.157
32.911,31.314,33.006,38.601,32.429,34.213
32.791,31.32,33.598,38.332,32.44,34.285
32.675,31.326999999999998,34.269,38.066,32.45,34.373000000000005
32.564,31.335,35.012,37.803000000000004,32.459,34.475
32.459,31.343000000000004,35.817,37.543,32.467,34.59
32.361,31.354,36.67,37.285,32.473,34.716
32.271,31.366999999999997,37.556999999999995,37.031,32.476,34.851
32.189,31.384,38.459,36.779,32.476,34.993
32.113,31.408,39.359,36.53,32.474000000000004,35.138000000000005
32.044000000000004,31.44,40.238,36.284,32.468,35.285
31.979,31.485,41.081,36.04,32.46,35.43
31.92,31.548000000000002,41.871,35.798,32.448,35.57
31.865,31.636,42.596000000000004,35.559,32.433,35.702
31.813000000000002,31.755,43.245,35.323,32.416,35.823
31.766,31.915,43.81,35.093,32.396,35.931999999999995
31.721,32.124,44.285,34.868,32.374,36.028
31.68,32.391999999999996,44.67,34.650999999999996,32.351,36.109
31.643,32.726,44.963,34.443000000000005,32.329,36.176
31.61,33.135,45.169,34.245,32.308,36.23
31.579,33.622,45.293,34.059,32.293,36.27
31.55,34.19,45.342,33.885,32.288000000000004,36.296
31.524,34.838,45.321999999999996,33.727,32.298,36.308
31.5,35.56,45.245,33.585,32.328,36.306999999999995
31.48,36.347,45.118,33.46,32.385999999999996,36.293
31.461,37.188,44.95,33.354,32.479,36.265
31.443,38.069,44.75,33.266,32.614000000000004,36.224000000000004
31.427,38.973,44.526,33.196,32.797,36.171
31.41,39.881,44.285,33.144,33.034,36.106
31.394000000000002,40.775999999999996,44.032,33.111,33.329,36.03
31.377,41.638000000000005,43.771,33.097,33.687,35.945
31.361,42.451,43.508,33.103,34.108000000000004,35.852
31.345,43.2,43.243,33.126999999999995,34.591,35.751999999999995
31.33,43.873000000000005,42.98,33.169000000000004,35.131,35.647
31.315,44.461000000000006,42.718,33.227,35.721,35.538000000000004
31.301,44.957,42.458,33.3,36.351,35.427
31.289,45.358000000000004,42.2,33.388000000000005,37.009,35.314
31.279,45.663000000000004,41.943999999999996,33.488,37.681,35.199
31.272,45.876999999999995,41.68899999999999,33.601,38.353,35.084
31.267,46.001999999999995,41.434,33.726,39.01,34.968
31.264,46.044,41.181000000000004,33.86,39.637,34.852
31.261,46.012,40.929,34.001999999999995,40.222,34.735
31.258000000000003,45.913000000000004,40.677,34.149,40.751999999999995,34.619
31.255,45.756,40.428000000000004,34.301,41.221000000000004,34.501999999999995
31.252,45.55,40.179,34.455,41.62,34.384
31.249000000000002,45.303999999999995,39.931,34.609,41.946000000000005,34.268
31.244,45.027,39.684,34.762,42.198,34.152
31.238000000000003,44.726000000000006,39.436,34.912,42.376999999999995,34.038000000000004
31.232,44.408,39.189,35.056,42.486000000000004,33.926
31.226999999999997,44.081,38.943000000000005,35.192,42.528999999999996,33.816
31.221999999999998,43.748000000000005,38.699,35.318000000000005,42.515,33.709
31.218000000000004,43.413999999999994,38.458,35.434,42.45,33.605
31.215999999999998,43.083,38.221,35.538000000000004,42.343999999999994,33.503
31.215999999999998,42.757,37.989000000000004,35.63,42.20399999999999,33.405
31.22,42.438,37.764,35.707,42.04,33.309
31.230999999999998,42.125,37.544000000000004,35.771,41.858999999999995,33.217
31.250999999999998,41.817,37.332,35.821,41.67,33.126
31.285,41.513999999999996,37.128,35.856,41.477,33.038000000000004
31.339000000000002,41.214,36.934,35.878,41.286,32.952
31.42,40.917,36.751,35.889,41.102,32.869
31.535999999999998,40.621,36.58,35.888000000000005,40.926,32.79
31.695999999999998,40.326,36.421,35.876999999999995,40.760999999999996,32.714
31.909000000000002,40.031,36.274,35.856,40.607,32.643
32.183,39.736999999999995,36.14,35.824,40.464,32.575
32.527,39.443000000000005,36.018,35.782,40.330999999999996,32.51
32.946,39.149,35.908,35.732,40.208,32.446999999999996
33.443000000000005,38.857,35.81,35.673,40.092,32.387
34.02,38.567,35.723,35.607,39.984,32.33
34.674,38.281,35.647,35.535,39.881,32.275
35.397,38.0,35.580999999999996,35.457,39.783,32.223
36.181,37.725,35.524,35.374,39.686,32.175
37.014,37.458,35.476,35.288000000000004,39.591,32.13
37.881,37.2,35.435,35.199,39.497,32.09
38.765,36.95,35.400999999999996,35.109,39.402,32.054
39.646,36.708,35.374,35.019,39.306,32.022
40.506,36.474000000000004,35.353,34.929,39.209,31.993000000000002
41.328,36.248000000000005,35.339,34.841,39.111999999999995,31.968000000000004
42.095,36.029,35.332,34.754,39.013000000000005,31.945999999999998
42.792,35.818000000000005,35.334,34.668,38.913000000000004,31.925
43.408,35.611999999999995,35.344,34.584,38.812,31.904
43.934,35.414,35.365,34.5,38.711999999999996,31.883000000000003
44.364,35.222,35.395,34.416,38.614000000000004,31.862
44.696999999999996,35.036,35.436,34.333,38.516,31.84
44.934,34.858000000000004,35.486,34.251,38.419000000000004,31.816999999999997
45.078,34.689,35.546,34.17,38.321999999999996,31.795
45.13399999999999,34.53,35.614000000000004,34.089,38.225,31.774
45.111000000000004,34.382,35.689,34.009,38.126,31.756
45.016000000000005,34.245,35.77,33.931,38.027,31.744
44.86,34.12,35.856,33.853,37.926,31.74
44.652,34.009,35.945,33.778,37.824,31.75
44.402,33.911,36.036,33.705,37.72,31.781
44.12,33.828,36.126999999999995,33.638000000000005,37.614000000000004,31.838
43.815,33.76,36.216,33.574,37.508,31.930999999999997
43.494,33.707,36.302,33.515,37.402,32.069
43.162,33.671,36.381,33.46,37.296,32.26
42.825,33.65,36.453,33.407,37.191,32.513000000000005
42.486000000000004,33.647,36.515,33.356,37.089,32.834
42.15,33.66,36.565,33.306999999999995,36.992,33.226
41.818000000000005,33.691,36.604,33.259,36.899,33.691
41.492,33.739000000000004,36.63,33.211999999999996,36.814,34.226
41.172,33.805,36.643,33.164,36.736,34.827
40.859,33.888000000000005,36.644,33.115,36.669000000000004,35.484
40.551,33.986,36.634,33.064,36.611999999999995,36.186
40.25,34.1,36.611999999999995,33.012,36.567,36.92
39.954,34.227,36.579,32.959,36.534,37.671
39.662,34.365,36.537,32.903,36.512,38.424
39.374,34.512,36.485,32.845,36.501,39.163000000000004
39.088,34.665,36.425,32.784,36.5,39.873000000000005
38.803000000000004,34.823,36.357,32.723,36.509,40.541
38.518,34.981,36.281,32.66,36.529,41.153
38.233000000000004,35.138000000000005,36.199,32.597,36.559,41.702
37.948,35.288000000000004,36.111999999999995,32.535,36.597,42.181000000000004
37.661,35.431,36.02,32.475,36.644,42.585
37.374,35.563,35.923,32.418,36.696999999999996,42.913000000000004
37.086999999999996,35.685,35.823,32.363,36.755,43.165
36.801,35.794000000000004,35.719,32.312,36.815,43.345
36.516999999999996,35.891,35.613,32.264,36.876999999999995,43.456
36.236999999999995,35.975,35.504,32.223,36.939,43.504
35.963,36.046,35.396,32.193000000000005,37.0,43.495
35.698,36.104,35.287,32.172,37.056999999999995,43.434
35.443000000000005,36.149,35.179,32.162,37.109,43.328
35.2,36.181,35.071999999999996,32.162,37.153,43.184
34.971,36.2,34.966,32.173,37.189,43.008
34.758,36.207,34.863,32.196,37.216,42.806999999999995
34.562,36.202,34.760999999999996,32.233000000000004,37.231,42.586999999999996
34.385,36.185,34.662,32.29,37.236,42.351000000000006
34.225,36.157,34.566,32.37,37.226,42.105
34.080999999999996,36.118,34.472,32.482,37.203,41.851000000000006
33.952,36.068000000000005,34.379,32.632,37.165,41.593999999999994
33.839,36.008,34.286,32.827,37.11,41.335
33.74,35.938,34.193000000000005,33.077,37.041,41.077
33.657,35.858000000000004,34.098,33.387,36.957,40.821999999999996
33.588,35.77,34.001999999999995,33.760999999999996,36.859,40.571
33.533,35.675,33.905,34.2,36.748000000000005,40.324
33.495,35.574,33.808,34.704,36.623000000000005,40.082
33.474000000000004,35.469,33.71,35.269,36.486999999999995,39.845
33.47,35.359,33.613,35.89,36.339,39.613
33.484,35.247,33.516999999999996,36.556,36.181,39.385999999999996
33.518,35.133,33.424,37.258,36.014,39.164
33.571,35.016,33.332,37.981,35.838,38.946
33.643,34.898,33.241,38.713,35.655,38.729
33.735,34.779,33.152,39.439,35.466,38.514
33.845,34.659,33.063,40.145,35.27,38.3
33.972,34.539,32.975,40.817,35.07,38.086999999999996
34.114000000000004,34.419000000000004,32.888000000000005,41.443999999999996,34.866,37.876
34.271,34.301,32.801,42.013000000000005,34.658,37.667
34.441,34.186,32.716,42.516999999999996,34.446999999999996,37.461999999999996
34.622,34.073,32.631,42.949,34.232,37.260999999999996
34.809,33.963,32.548,43.306999999999995,34.015,37.064
35.001999999999995,33.854,32.468,43.588,33.795,36.871
35.196,33.748000000000005,32.391,43.793,33.573,36.681
35.389,33.643,32.317,43.927,33.349000000000004,36.494
35.577,33.54,32.247,43.992,33.124,36.308
35.755,33.439,32.18,43.995,32.896,36.125
35.922,33.34,32.118,43.943000000000005,32.669000000000004,35.942
36.071999999999996,33.243,32.059,43.842,32.443000000000005,35.76
36.204,33.147,32.003,43.699,32.219,35.58
36.316,33.053000000000004,31.951999999999998,43.523,31.997,35.402
36.407,32.959,31.904,43.321000000000005,31.779,35.225
36.474000000000004,32.865,31.858,43.098,31.565,35.051
36.519,32.774,31.816,42.86,31.355,34.881
36.542,32.684,31.776999999999997,42.613,31.15,34.716
36.545,32.596,31.741,42.361999999999995,30.95,34.558
36.528,32.51,31.706999999999997,42.108999999999995,30.756,34.406
36.494,32.428000000000004,31.676,41.857,30.569000000000003,34.264
36.442,32.348,31.646,41.608999999999995,30.39,34.13
36.373000000000005,32.272,31.616999999999997,41.365,30.22,34.008
36.29,32.201,31.589000000000002,41.125,30.059,33.899
36.193000000000005,32.134,31.561999999999998,40.889,29.906,33.803000000000004
36.086,32.071,31.534000000000002,40.656,29.761999999999997,33.723
35.961999999999996,32.013000000000005,31.505,40.425,29.627,33.658
35.82,31.959,31.475,40.194,29.499000000000002,33.61
35.661,31.91,31.445,39.963,29.378,33.58
35.491,31.863000000000003,31.414,39.73,29.265,33.569
35.316,31.819000000000003,31.383000000000003,39.495,29.16,33.577
35.139,31.776,31.351,39.258,29.064,33.606
34.967,31.735,31.319000000000003,39.02,28.976999999999997,33.653
34.801,31.697,31.289,38.782,28.9,33.719
34.645,31.66,31.259,38.543,28.831999999999997,33.801
34.499,31.625,31.23,38.304,28.775,33.896
34.364000000000004,31.592,31.201,38.066,28.728,34.004
34.238,31.563000000000002,31.173000000000002,37.827,28.693,34.122
34.121,31.535,31.145,37.588,28.67,34.249
34.012,31.51,31.118000000000002,37.35,28.659000000000002,34.382
33.907,31.486,31.092,37.113,28.66,34.519
33.805,31.462,31.066999999999997,36.876,28.674,34.659
33.705,31.44,31.044,36.641999999999996,28.701,34.8
33.605,31.416999999999998,31.023000000000003,36.41,28.741,34.939
33.506,31.395,31.005,36.181,28.793000000000003,35.074
33.407,31.373,30.99,35.955999999999996,28.859,35.21
33.309,31.351999999999997,30.979,35.735,28.939,35.347
33.211,31.333000000000002,30.97,35.519,29.033,35.483000000000004
33.114000000000004,31.313000000000002,30.965,35.308,29.142,35.614000000000004
33.016,31.295,30.964000000000002,35.103,29.267,35.736
32.917,31.278000000000002,30.965999999999998,34.904,29.406999999999996,35.842
32.818000000000005,31.264,30.971999999999998,34.713,29.56,35.928000000000004
32.719,31.250999999999998,30.98,34.532,29.726999999999997,35.992
32.619,31.241999999999997,30.99,34.361,29.905,36.031
32.519,31.237,31.002,34.201,30.094,36.045
32.42,31.236,31.014,34.054,30.295,36.034
32.323,31.238000000000003,31.026,33.919000000000004,30.505,36.0
32.228,31.241999999999997,31.037,33.8,30.723000000000003,35.944
32.138000000000005,31.247,31.046999999999997,33.696,30.948,35.869
32.053000000000004,31.253,31.057,33.611,31.177,35.778
31.973000000000003,31.26,31.065,33.543,31.408,35.674
31.9,31.266,31.072,33.495,31.638,35.561
31.831,31.273000000000003,31.076999999999998,33.465,31.864,35.442
31.768,31.279,31.08,33.454,32.082,35.319
31.711,31.285999999999998,31.081999999999997,33.459,32.289,35.194
31.659000000000002,31.293000000000003,31.081999999999997,33.482,32.483000000000004,35.068000000000005
31.613000000000003,31.3,31.081,33.521,32.659,34.943000000000005
31.570999999999998,31.307,31.079,33.575,32.818000000000005,34.821
31.535,31.314,31.076,33.644,32.957,34.702
31.503,31.32,31.073,33.725,33.075,34.586
31.475,31.326999999999998,31.070999999999998,33.817,33.173,34.474000000000004
31.451999999999998,31.334,31.069000000000003,33.918,33.253,34.365
31.432,31.34,31.068,34.027,33.316,34.259
31.415,31.346,31.068,34.141,33.364000000000004,34.155
31.4,31.351999999999997,31.07,34.259,33.400999999999996,34.053000000000004
31.386,31.358,31.074,34.381,33.431,33.951
31.372,31.365,31.078000000000003,34.503,33.46,33.85
31.358,31.371,31.083000000000002,34.626,33.493,33.748000000000005
31.344,31.372,31.088,34.748000000000005,33.536,33.647
31.329,31.365,31.092,34.868,33.597,33.544000000000004
31.313000000000002,31.355,31.095,34.985,33.683,33.441
31.298000000000002,31.346999999999998,31.096999999999998,35.099000000000004,33.8,33.336
31.285,31.349,31.098000000000003,35.209,33.952,33.231
31.274,31.371,31.1,35.314,34.141999999999996,33.125
31.267,31.423000000000002,31.104,35.413000000000004,34.374,33.02
31.264,31.515,31.109,35.505,34.648,32.916
31.264,31.656999999999996,31.116,35.59,34.965,32.814
31.267,31.86,31.128,35.668,35.324,32.713
31.273000000000003,32.133,31.146,35.736999999999995,35.721,32.613
31.279,32.483000000000004,31.171999999999997,35.798,36.150999999999996,32.515
31.285,32.917,31.21,35.848,36.607,32.417
31.291,33.436,31.265,35.885999999999996,37.083,32.32
31.296999999999997,34.04,31.344,35.912,37.568000000000005,32.224000000000004
31.302,34.725,31.453000000000003,35.923,38.054,32.131
31.307,35.482,31.601999999999997,35.922,38.532,32.042
31.313000000000002,36.301,31.801,35.907,38.993,31.958000000000002
31.318,37.169000000000004,32.056999999999995,35.881,39.428000000000004,31.881
31.325,38.068000000000005,32.38,35.843,39.830999999999996,31.811
31.333000000000002,38.98,32.775999999999996,35.795,40.195,31.749000000000002
31.34,39.885999999999996,33.25,35.736999999999995,40.516999999999996,31.693
31.346999999999998,40.769,33.803000000000004,35.67,40.793,31.643
31.354,41.611999999999995,34.435,35.594,41.022,31.599
31.358,42.398,35.137,35.513000000000005,41.203,31.558000000000003
31.36,43.114,35.903,35.427,41.338,31.521
31.359,43.751000000000005,36.719,35.338,41.427,31.486
31.357,44.3,37.573,35.246,41.474,31.454
31.351999999999997,44.757,38.446,35.154,41.483000000000004,31.423000000000002
31.348000000000003,45.121,39.321999999999996,35.061,41.456,31.395
31.344,45.393,40.184,34.969,41.398,31.366999999999997
31.34,45.578,41.013000000000005,34.879,41.313,31.340999999999998
31.339000000000002,45.68,41.79600000000001,34.791,41.205,31.314
31.34,45.706,42.516999999999996,34.708,41.077,31.287
31.340999999999998,45.663999999999994,43.166000000000004,34.626999999999995,40.933,31.261
31.344,45.56100000000001,43.733000000000004,34.551,40.775,31.234
31.349,45.407,44.215,34.478,40.604,31.208000000000002
31.358,45.21,44.606,34.406,40.423,31.182
31.375,44.978,44.909,34.336,40.233000000000004,31.158
31.403000000000002,44.72,45.123999999999995,34.266,40.035,31.135
31.447,44.443000000000005,45.256,34.195,39.83,31.114
31.511999999999997,44.151,45.31,34.123000000000005,39.62,31.095
31.604,43.851000000000006,45.293,34.049,39.404,31.076999999999998
31.734,43.544,45.213,33.972,39.185,31.06
31.915,43.235,45.077,33.894,38.961,31.044
32.155,42.926,44.894,33.815,38.734,31.03
32.464,42.617,44.673,33.736,38.505,31.018
32.851,42.31100000000001,44.42,33.657,38.275,31.009
33.321,42.006,44.144,33.578,38.043,31.006999999999998
33.878,41.703,43.852,33.5,37.811,31.014
34.521,41.402,43.549,33.422,37.578,31.034000000000002
35.244,41.102,43.24,33.347,37.346,31.072
36.04,40.803000000000004,42.93,33.274,37.113,31.131999999999998
36.897,40.505,42.622,33.204,36.88,31.221
37.798,40.208,42.318000000000005,33.137,36.647,31.348000000000003
38.727,39.912,42.019,33.076,36.415,31.52
39.664,39.617,41.724,33.02,36.183,31.748
40.589,39.324,41.43600000000001,32.971,35.952,32.037
41.482,39.034,41.153,32.929,35.722,32.395
42.326,38.747,40.876,32.895,35.492,32.826
43.102,38.463,40.604,32.866,35.264,33.33
43.799,38.183,40.338,32.844,35.038000000000004,33.905
44.405,37.906,40.078,32.825,34.816,34.545
44.913000000000004,37.633,39.823,32.809,34.601,35.24
45.32,37.364000000000004,39.574,32.794000000000004,34.394,35.979
45.625,37.101,39.329,32.779,34.196999999999996,36.745
45.831,36.844,39.088,32.765,34.010999999999996,37.522
45.943999999999996,36.594,38.853,32.751,33.838,38.292
45.971000000000004,36.351,38.623000000000005,32.736999999999995,33.679,39.039
45.92100000000001,36.115,38.398,32.723,33.535,39.747
45.803999999999995,35.885,38.18,32.711,33.409,40.402
45.631,35.664,37.968,32.701,33.302,40.993
45.412,35.45,37.763000000000005,32.694,33.216,41.512
45.156000000000006,35.243,37.566,32.689,33.150999999999996,41.953
44.873999999999995,35.045,37.375,32.687,33.108000000000004,42.315
44.571999999999996,34.857,37.191,32.688,33.086999999999996,42.597
44.257,34.678000000000004,37.013000000000005,32.694,33.088,42.802
43.93600000000001,34.51,36.843,32.703,33.111,42.931999999999995
43.611999999999995,34.354,36.68,32.714,33.154,42.995
43.291000000000004,34.21,36.524,32.729,33.217,42.996
42.974,34.08,36.375,32.744,33.3,42.943999999999996
42.662,33.964,36.23,32.762,33.399,42.845
42.358000000000004,33.861999999999995,36.091,32.782,33.513000000000005,42.708
42.06,33.775999999999996,35.958,32.804,33.638000000000005,42.54
41.766999999999996,33.705999999999996,35.830999999999996,32.830999999999996,33.773,42.348
41.48,33.654,35.708,32.861999999999995,33.916,42.138000000000005
41.196999999999996,33.62,35.591,32.898,34.064,41.913999999999994
40.917,33.605,35.479,32.941,34.214,41.681000000000004
40.639,33.609,35.374,32.996,34.363,41.443999999999996
40.361999999999995,33.633,35.277,33.068000000000005,34.51,41.205
40.085,33.675,35.188,33.163000000000004,34.650999999999996,40.967
39.809,33.735,35.111,33.289,34.785,40.729
39.531,33.812,35.046,33.453,34.911,40.493
39.255,33.906,34.993,33.664,35.027,40.257
38.98,34.013000000000005,34.952,33.926,35.133,40.023
38.707,34.134,34.925,34.247,35.228,39.791
38.437,34.266,34.911,34.628,35.31,39.559
38.169000000000004,34.407,34.91,35.071,35.379,39.328
37.903,34.553000000000004,34.922,35.575,35.433,39.097
37.64,34.704,34.948,36.137,35.472,38.866
37.38,34.856,34.986999999999995,36.751999999999995,35.496,38.635
37.124,35.008,35.04,37.413000000000004,35.507,38.405
36.873000000000005,35.159,35.105,38.107,35.503,38.176
36.626,35.306,35.181999999999995,38.824,35.486999999999995,37.949
36.385999999999996,35.448,35.268,39.55,35.459,37.726
36.153,35.582,35.363,40.271,35.421,37.508
35.931,35.708,35.464,40.973,35.372,37.296
35.719,35.823,35.57,41.644,35.315,37.09
35.52,35.926,35.679,42.272,35.249,36.891
35.336,36.018,35.788000000000004,42.843999999999994,35.175,36.698
35.167,36.096,35.896,43.354,35.097,36.51
35.016,36.161,36.001999999999995,43.793,35.013000000000005,36.328
34.884,36.211,36.104,44.159,34.926,36.150999999999996
34.771,36.246,36.2,44.45,34.836999999999996,35.976
34.678000000000004,36.266999999999996,36.287,44.665,34.746,35.805
34.604,36.271,36.365,44.806999999999995,34.654,35.635999999999996
34.55,36.259,36.433,44.881,34.561,35.469
34.516,36.233000000000004,36.488,44.891000000000005,34.468,35.303000000000004
34.5,36.193000000000005,36.53,44.845,34.375,35.14
34.504,36.14,36.558,44.75,34.283,34.979
34.525999999999996,36.075,36.571999999999996,44.613,34.192,34.821999999999996
34.566,36.001,36.573,44.443999999999996,34.102,34.669000000000004
34.624,35.917,36.56,44.247,34.013000000000005,34.522
34.7,35.826,36.535,44.028999999999996,33.925,34.383
34.794000000000004,35.729,36.499,43.79600000000001,33.836,34.251
34.905,35.628,36.453,43.553000000000004,33.748000000000005,34.13
35.033,35.522,36.398,43.303999999999995,33.659,34.018
35.177,35.413000000000004,36.335,43.051,33.571,33.918
35.335,35.302,36.266,42.798,33.483000000000004,33.83
35.505,35.189,36.193000000000005,42.547,33.397,33.757
35.684,35.076,36.117,42.298,33.311,33.701
35.869,34.961999999999996,36.039,42.051,33.227,33.664
36.056999999999995,34.849000000000004,35.959,41.805,33.147,33.646
36.243,34.736999999999995,35.88,41.56100000000001,33.07,33.649
36.425,34.625,35.8,41.315,32.997,33.67
36.605,34.516,35.721,41.068999999999996,32.929,33.711
36.782,34.409,35.641,40.821,32.867,33.769
36.955,34.303000000000004,35.56,40.574,32.812,33.844
37.118,34.198,35.48,40.326,32.764,33.935
37.266,34.096,35.4,40.079,32.721,34.039
37.391999999999996,33.995,35.318000000000005,39.833,32.685,34.157
37.494,33.895,35.236,39.586999999999996,32.655,34.286
37.568000000000005,33.798,35.152,39.341,32.632,34.425
37.611,33.703,35.067,39.097,32.616,34.573
37.626,33.611,34.979,38.856,32.606,34.726
37.611999999999995,33.52,34.888000000000005,38.62,32.601,34.883
37.571999999999996,33.43,34.796,38.387,32.602,35.041
37.509,33.341,34.702,38.16,32.608000000000004,35.198
37.425,33.254,34.608000000000004,37.937,32.616,35.354
37.324,33.168,34.512,37.72,32.626,35.505
37.209,33.084,34.416,37.507,32.635999999999996,35.648
37.084,33.001999999999995,34.321,37.3,32.647,35.781
36.95,32.923,34.225,37.098,32.656,35.900999999999996
36.81,32.846,34.131,36.9,32.665,36.005
36.665,32.77,34.038000000000004,36.705,32.672,36.094
36.514,32.695,33.946999999999996,36.514,32.676,36.165
36.358000000000004,32.621,33.857,36.325,32.678000000000004,36.218
36.196,32.548,33.768,36.139,32.676,36.254
36.031,32.476,33.681999999999995,35.955,32.67,36.272
35.864000000000004,32.403,33.599000000000004,35.775,32.66,36.273
35.696999999999996,32.33,33.521,35.598,32.646,36.258
35.53,32.258,33.45,35.425,32.628,36.228
35.365,32.187,33.385999999999996,35.259,32.608000000000004,36.184
35.202,32.118,33.330999999999996,35.099000000000004,32.586999999999996,36.126999999999995
35.042,32.052,33.283,34.949,32.567,36.058
34.888000000000005,31.989,33.241,34.806999999999995,32.548,35.978
34.739000000000004,31.929000000000002,33.203,34.677,32.531,35.889
34.595,31.871,33.169000000000004,34.558,32.515,35.791
34.455999999999996,31.818,33.135,34.451,32.501,35.685
34.323,31.768,33.099000000000004,34.356,32.488,35.57
34.193000000000005,31.721,33.059,34.275,32.476,35.45
34.065,31.678,33.014,34.209,32.464,35.325
33.938,31.638,32.963,34.157,32.452,35.196999999999996
33.811,31.601,32.906,34.121,32.438,35.067
33.683,31.565,32.843,34.101,32.421,34.937
33.555,31.525,32.774,34.096,32.403,34.805
33.425,31.474,32.701,34.104,32.381,34.673
33.297,31.416,32.626999999999995,34.123000000000005,32.356,34.539
33.171,31.351,32.551,34.153,32.328,34.405
33.047,31.285,32.476,34.192,32.298,34.269
32.928000000000004,31.221,32.403,34.238,32.266,34.133
32.813,31.164,32.333,34.292,32.235,33.997
32.702,31.116,32.266999999999996,34.352,32.205999999999996,33.861999999999995
32.595,31.081,32.205,34.419000000000004,32.183,33.728
32.491,31.059,32.148,34.49,32.169000000000004,33.594
32.391,31.051,32.096,34.567,32.168,33.461
32.295,31.055999999999997,32.048,34.648,32.186,33.328
32.202,31.070999999999998,32.004,34.733000000000004,32.229,33.198
32.114000000000004,31.095,31.965,34.823,32.302,33.068000000000005
32.033,31.125999999999998,31.93,34.915,32.412,32.94
31.959,31.16,31.9,35.007,32.565,32.814
31.892,31.195,31.874000000000002,35.097,32.763000000000005,32.69
31.833000000000002,31.23,31.851999999999997,35.183,33.01,32.569
31.781999999999996,31.261999999999997,31.831999999999997,35.263000000000005,33.308,32.452
31.74,31.291999999999998,31.816999999999997,35.336999999999996,33.656,32.342
31.705,31.318,31.804000000000002,35.403,34.053000000000004,32.238
31.679000000000002,31.339000000000002,31.795,35.461999999999996,34.494,32.141999999999996
31.659000000000002,31.355,31.79,35.51,34.973,32.053000000000004
31.645,31.366,31.785999999999998,35.548,35.482,31.971
31.635,31.372,31.785,35.576,36.010999999999996,31.895
31.629,31.374000000000002,31.785,35.592,36.55,31.825
31.625999999999998,31.371,31.785999999999998,35.595,37.089,31.761999999999997
31.624000000000002,31.364,31.789,35.586999999999996,37.616,31.705
31.623,31.355999999999998,31.793000000000003,35.567,38.122,31.655
31.623,31.348000000000003,31.799,35.535,38.598,31.612
31.622,31.340999999999998,31.805,35.491,39.037,31.575
31.623,31.337,31.813000000000002,35.436,39.43,31.544
31.623,31.339000000000002,31.82,35.372,39.775,31.516
31.623,31.351,31.826,35.299,40.067,31.491999999999997
31.622,31.375999999999998,31.831999999999997,35.219,40.306,31.47
31.62,31.421999999999997,31.835,35.132,40.492,31.451
31.616,31.495,31.836,35.04,40.626,31.434
31.611,31.603,31.835,34.941,40.711,31.419
31.604,31.756,31.831,34.838,40.751,31.405
31.596999999999998,31.962,31.826,34.73,40.749,31.391
31.59,32.23,31.819000000000003,34.62,40.711,31.377
31.584,32.566,31.811,34.507,40.641999999999996,31.364
31.58,32.977,31.801,34.391999999999996,40.547,31.351
31.576999999999998,33.467,31.791999999999998,34.275999999999996,40.43,31.339000000000002
31.576999999999998,34.037,31.781,34.16,40.295,31.326999999999998
31.578000000000003,34.683,31.77,34.044000000000004,40.147,31.316999999999997
31.581,35.400999999999996,31.758000000000003,33.928000000000004,39.989000000000004,31.307
31.585,36.181999999999995,31.745,33.813,39.824,31.298000000000002
31.59,37.013000000000005,31.733,33.7,39.654,31.29
31.596,37.88,31.72,33.59,39.481,31.284000000000002
31.604,38.766,31.708000000000002,33.482,39.306,31.281
31.613000000000003,39.652,31.695999999999998,33.376999999999995,39.129,31.281
31.625999999999998,40.519,31.686,33.274,38.952,31.285999999999998
31.641,41.352,31.677,33.173,38.774,31.299
31.656,42.133,31.669,33.076,38.596,31.320999999999998
31.673000000000002,42.849,31.663,32.982,38.419000000000004,31.355999999999998
31.69,43.488,31.659000000000002,32.891999999999996,38.244,31.409000000000002
31.708000000000002,44.042,31.656999999999996,32.805,38.069,31.486
31.729,44.506,31.655,32.722,37.896,31.594
31.750999999999998,44.879,31.655,32.641,37.726,31.738000000000003
31.774,45.16,31.656,32.564,37.556999999999995,31.927
31.8,45.352,31.658,32.489000000000004,37.389,32.169000000000004
31.828000000000003,45.46,31.66,32.415,37.223,32.469
31.858,45.492,31.663,32.345,37.058,32.833
31.891,45.453,31.665,32.275999999999996,36.891999999999996,33.263000000000005
31.928,45.353,31.666,32.209,36.727,33.759
31.971999999999998,45.199,31.666999999999998,32.143,36.562,34.317
32.027,45.0,31.666999999999998,32.078,36.397,34.93
32.1,44.763999999999996,31.666999999999998,32.013000000000005,36.231,35.589
32.195,44.498999999999995,31.67,31.949,36.065,36.281
32.32,44.213,31.674,31.886,35.896,36.992
32.485,43.912,31.682,31.826,35.726,37.709
32.698,43.602,31.695999999999998,31.77,35.553000000000004,38.415
32.966,43.287,31.719,31.719,35.379,39.097
33.298,42.971000000000004,31.753,31.673000000000002,35.205,39.742
33.701,42.656000000000006,31.804000000000002,31.633000000000003,35.032,40.336
34.177,42.342,31.878,31.596999999999998,34.86,40.872
34.728,42.031000000000006,31.980999999999998,31.561,34.69,41.341
35.353,41.723,32.121,31.526999999999997,34.523,41.738
36.045,41.419,32.303000000000004,31.497,34.359,42.06
36.796,41.117,32.536,31.473000000000003,34.199,42.306999999999995
37.593,40.82,32.826,31.455,34.044000000000004,42.481
38.421,40.525,33.178000000000004,31.445999999999998,33.896,42.585
39.264,40.233000000000004,33.595,31.444000000000003,33.754,42.625
40.105,39.944,34.08,31.45,33.622,42.607
40.926,39.657,34.631,31.463,33.499,42.538999999999994
41.71,39.372,35.246,31.48,33.388000000000005,42.427
42.443999999999996,39.09,35.918,31.502,33.289,42.278999999999996
43.114,38.809,36.64,31.526,33.203,42.102
43.708,38.531,37.399,31.55,33.13,41.903
44.22,38.254,38.185,31.570999999999998,33.071,41.687
44.645,37.98,38.983000000000004,31.59,33.027,41.46
44.981,37.708,39.779,31.605,32.997,41.225
45.228,37.441,40.559,31.615,32.981,40.986000000000004
45.391000000000005,37.177,41.31,31.619,32.981,40.745
45.473,36.919000000000004,42.019,31.619,32.995,40.501999999999995
45.483000000000004,36.666,42.675,31.614,33.025,40.26
45.428999999999995,36.421,43.269,31.604,33.069,40.019
45.318999999999996,36.183,43.794,31.59,33.126999999999995,39.778
45.163000000000004,35.954,44.246,31.574,33.199,39.538000000000004
44.968999999999994,35.733000000000004,44.622,31.558000000000003,33.283,39.296
44.745,35.519,44.922,31.541999999999998,33.376999999999995,39.051
44.497,35.314,45.146,31.526999999999997,33.48,38.805
44.233000000000004,35.117,45.3,31.515,33.59,38.556999999999995
43.958,34.929,45.385,31.505,33.705999999999996,38.306999999999995
43.674,34.75,45.407,31.498,33.825,38.056999999999995
43.386,34.580999999999996,45.372,31.493000000000002,33.946,37.808
43.095,34.422,45.286,31.489,34.067,37.56
42.803000000000004,34.275,45.155,31.488000000000003,34.188,37.313
42.51,34.138000000000005,44.986999999999995,31.489,34.306999999999995,37.07
42.218,34.015,44.787,31.493000000000002,34.422,36.832
41.925,33.906,44.562,31.5,34.533,36.599000000000004
41.63,33.811,44.318000000000005,31.513,34.637,36.372
41.335,33.732,44.06,31.531999999999996,34.735,36.15
41.038999999999994,33.669000000000004,43.791000000000004,31.56,34.824,35.931999999999995
40.742,33.622,43.515,31.6,34.905,35.721
40.446,33.593,43.235,31.656,34.976,35.514
40.153,33.580999999999996,42.953,31.733,35.038000000000004,35.313
39.861,33.586999999999996,42.67100000000001,31.838,35.091,35.117
39.574,33.613,42.391999999999996,31.978,35.135,34.928000000000004
39.29,33.656,42.11600000000001,32.161,35.169000000000004,34.743
39.01,33.718,41.845,32.393,35.193000000000005,34.563
38.736,33.797,41.578,32.681,35.207,34.387
38.468,33.891999999999996,41.316,33.028,35.214,34.215
38.205,34.0,41.059,33.437,35.211999999999996,34.047
37.946,34.121,40.806,33.907,35.202,33.884
37.691,34.253,40.556,34.439,35.185,33.727
37.441,34.393,40.309,35.029,35.161,33.576
37.195,34.539,40.065,35.67,35.13,33.431999999999995
36.954,34.691,39.824,36.352,35.093,33.297
36.72,34.845,39.584,37.067,35.049,33.174
36.492,35.0,39.348,37.8,35.0,33.064
36.271,35.150999999999996,39.113,38.538000000000004,34.946999999999996,32.969
36.06,35.298,38.882,39.265,34.891,32.893
35.859,35.439,38.652,39.969,34.830999999999996,32.836
35.671,35.571,38.424,40.634,34.77,32.799
35.494,35.694,38.196999999999996,41.248999999999995,34.707,32.782
35.330999999999996,35.806999999999995,37.97,41.803000000000004,34.644,32.784
35.181999999999995,35.907,37.742,42.288000000000004,34.580999999999996,32.805
35.047,35.994,37.513000000000005,42.698,34.516999999999996,32.845
34.928000000000004,36.068000000000005,37.283,43.032,34.452,32.903
34.825,36.128,37.051,43.288000000000004,34.385999999999996,32.979
34.738,36.174,36.816,43.468,34.32,33.071999999999996
34.665,36.204,36.58,43.575,34.253,33.181999999999995
34.608000000000004,36.221,36.342,43.614,34.186,33.306
34.566,36.225,36.105,43.592,34.118,33.444
34.54,36.216,35.868,43.513999999999996,34.051,33.593
34.532,36.195,35.635,43.388999999999996,33.984,33.75
34.542,36.162,35.408,43.224,33.916,33.913000000000004
34.571,36.118,35.189,43.026,33.849000000000004,34.079
34.617,36.063,34.98,42.803000000000004,33.783,34.248000000000005
34.681,35.998000000000005,34.784,42.559,33.718,34.415
34.762,35.924,34.601,42.302,33.654,34.58
34.86,35.841,34.433,42.035,33.592,34.74
34.973,35.751999999999995,34.282,41.763000000000005,33.532,34.891999999999996
35.099000000000004,35.655,34.147,41.489,33.474000000000004,35.034
35.236,35.553000000000004,34.031,41.215,33.417,35.164
35.382,35.446,33.933,40.942,33.363,35.28
35.534,35.335,33.854,40.671,33.311,35.381
35.688,35.22,33.794000000000004,40.403,33.263000000000005,35.465
35.841,35.103,33.751,40.137,33.219,35.531
35.991,34.985,33.724000000000004,39.874,33.178000000000004,35.578
36.135999999999996,34.867,33.713,39.613,33.141,35.607
36.274,34.75,33.717,39.353,33.107,35.617
36.404,34.634,33.733000000000004,39.096,33.076,35.611
36.525999999999996,34.52,33.762,38.84,33.047,35.59
36.637,34.409,33.801,38.586999999999996,33.021,35.556
36.736,34.299,33.851,38.338,32.997,35.510999999999996
36.821999999999996,34.192,33.91,38.094,32.973,35.455999999999996
36.893,34.088,33.977,37.856,32.95,35.393
36.948,33.985,34.051,37.624,32.926,35.324
36.986,33.885,34.132,37.397,32.9,35.249
37.007,33.785,34.217,37.175,32.874,35.168
37.01,33.687,34.306,36.957,32.847,35.083
36.994,33.588,34.399,36.742,32.819,34.993
36.961,33.489000000000004,34.492,36.533,32.793,34.899
36.911,33.391,34.586999999999996,36.328,32.766999999999996,34.801
36.845,33.294000000000004,34.683,36.128,32.742,34.7
36.765,33.199,34.778,35.931999999999995,32.717,34.597
36.672,33.106,34.871,35.74,32.691,34.491
36.569,33.015,34.961999999999996,35.55,32.665,34.382
36.457,32.926,35.049,35.364000000000004,32.64,34.273
36.336999999999996,32.84,35.131,35.18,32.614000000000004,34.162
36.21,32.757,35.208,35.0,32.59,34.052
36.078,32.677,35.279,34.823,32.567,33.941
35.941,32.6,35.343,34.65,32.547,33.83
35.801,32.525999999999996,35.399,34.481,32.532,33.719
35.658,32.454,35.449,34.317,32.525,33.608000000000004
35.514,32.385999999999996,35.49,34.161,32.528,33.495
35.369,32.32,35.522,34.013000000000005,32.546,33.381
35.224000000000004,32.257,35.546,33.876,32.584,33.264
35.077,32.196999999999996,35.562,33.751,32.647,33.146
34.93,32.14,35.57,33.64,32.741,33.028
34.782,32.086999999999996,35.57,33.544000000000004,32.872,32.911
34.633,32.036,35.563,33.461999999999996,33.043,32.796
34.485,31.987,35.548,33.395,33.259,32.684
34.338,31.939,35.525999999999996,33.342,33.522,32.577
34.192,31.893,35.497,33.306,33.832,32.475
34.05,31.848000000000003,35.461,33.285,34.191,32.379
33.91,31.805999999999997,35.417,33.279,34.594,32.288000000000004
33.774,31.766,35.367,33.289,35.038000000000004,32.203
33.64,31.728,35.31,33.313,35.516,32.123000000000005
33.510999999999996,31.693,35.249,33.351,36.02,32.049
33.385,31.660999999999998,35.181999999999995,33.402,36.54,31.979
33.264,31.631,35.111999999999995,33.465,37.066,31.914
33.149,31.605,35.039,33.539,37.589,31.853
33.038000000000004,31.581,34.964,33.622,38.1,31.798000000000002
32.931999999999995,31.56,34.885,33.711,38.588,31.748
32.830999999999996,31.541999999999998,34.802,33.805,39.046,31.705
32.734,31.529,34.717,33.902,39.467,31.666999999999998
32.641,31.52,34.63,33.999,39.847,31.635
32.551,31.514,34.541,34.098,40.18,31.607
32.463,31.511999999999997,34.452,34.196,40.463,31.583000000000002
32.379,31.515,34.361999999999995,34.295,40.695,31.563000000000002
32.298,31.521,34.274,34.393,40.875,31.544
32.218,31.531999999999996,34.187,34.49,41.005,31.526999999999997
32.141,31.545,34.102,34.585,41.086000000000006,31.51
32.065,31.561999999999998,34.018,34.677,41.123999999999995,31.494
31.991999999999997,31.581,33.936,34.766,41.121,31.476999999999997
31.921,31.601999999999997,33.857,34.849000000000004,41.083,31.461
31.853,31.623,33.779,34.925,41.015,31.445
31.789,31.643,33.702,34.995,40.92,31.430999999999997
31.726999999999997,31.662,33.628,35.056999999999995,40.804,31.416999999999998
31.67,31.679000000000002,33.555,35.113,40.672,31.405
31.615,31.691999999999997,33.484,35.16,40.525999999999996,31.393
31.565,31.703000000000003,33.414,35.199,40.372,31.381
31.52,31.711,33.345,35.23,40.21,31.37
31.48,31.714000000000002,33.275999999999996,35.254,40.044000000000004,31.359
31.445999999999998,31.714000000000002,33.208,35.271,39.873000000000005,31.349
31.416999999999998,31.711,33.14,35.281,39.701,31.342
31.392,31.706,33.071,35.285,39.528,31.337
31.374000000000002,31.699,33.001,35.283,39.356,31.336
31.361,31.691,32.931,35.275,39.185,31.337
31.353,31.684,32.86,35.263000000000005,39.015,31.339000000000002
31.35,31.683000000000003,32.79,35.244,38.846,31.343000000000004
31.353,31.69,32.721,35.219,38.68,31.348000000000003
31.359,31.709,32.653,35.188,38.516,31.351999999999997
31.369,31.747,32.585,35.150999999999996,38.354,31.357
31.381999999999998,31.811,32.519,35.109,38.195,31.362
31.396,31.906999999999996,32.454,35.062,38.039,31.366
31.410999999999998,32.043,32.39,35.008,37.885999999999996,31.371
31.428,32.226,32.327,34.949,37.736,31.375
31.445999999999998,32.464,32.266,34.884,37.589,31.378
31.465,32.766,32.205999999999996,34.813,37.445,31.38
31.487,33.137,32.149,34.736,37.303000000000004,31.379
31.511,33.582,32.094,34.654,37.164,31.378
31.537,34.104,32.041,34.567,37.025999999999996,31.375999999999998
31.563000000000002,34.701,31.991,34.478,36.89,31.375999999999998
31.589000000000002,35.371,31.943,34.385999999999996,36.754,31.381
31.615,36.103,31.897,34.292,36.62,31.396
31.64,36.887,31.854,34.196,36.486,31.426
31.663,37.71,31.813000000000002,34.099000000000004,36.354,31.479
31.683000000000003,38.556,31.773000000000003,34.001,36.222,31.561
31.7,39.407,31.735,33.9,36.091,31.680999999999997
31.713,40.245,31.698,33.798,35.961999999999996,31.848000000000003
31.723000000000003,41.053999999999995,31.663,33.695,35.834,32.069
31.729,41.816,31.63,33.591,35.71,32.351
31.733,42.52,31.599,33.489000000000004,35.59,32.7
31.738000000000003,43.153,31.57,33.389,35.475,33.117
31.743000000000002,43.707,31.544,33.292,35.368,33.605
31.749000000000002,44.176,31.521,33.196,35.27,34.159
31.756999999999998,44.558,31.500999999999998,33.101,35.183,34.774
31.767,44.853,31.483,33.007,35.106,35.439
31.778000000000002,45.062,31.467,32.913000000000004,35.041,36.141
31.793000000000003,45.191,31.451999999999998,32.819,34.986999999999995,36.868
31.813000000000002,45.243,31.439,32.726,34.946,37.602
31.840999999999998,45.225,31.426,32.634,34.918,38.33
31.879,45.145,31.413,32.543,34.904,39.036
31.934,45.01,31.4,32.454,34.902,39.705
32.010999999999996,44.83,31.386999999999997,32.365,34.913000000000004,40.324
32.12,44.613,31.374000000000002,32.278,34.935,40.885
32.27,44.36600000000001,31.361,32.193000000000005,34.967,41.378
32.468,44.098,31.349,32.109,35.01,41.798
32.724000000000004,43.813,31.337,32.027,35.061,42.141000000000005
33.045,43.52,31.324,31.947,35.119,42.407
33.439,43.221000000000004,31.311999999999998,31.87,35.184,42.596000000000004
33.91,42.92,31.302,31.796,35.255,42.711999999999996
34.459,42.618,31.291999999999998,31.724,35.33,42.757
35.084,42.318000000000005,31.284000000000002,31.656,35.408,42.739
35.775999999999996,42.021,31.276999999999997,31.593000000000004,35.489000000000004,42.665
36.527,41.727,31.27,31.535,35.57,42.545
37.325,41.43600000000001,31.264,31.483,35.650999999999996,42.386
38.152,41.148,31.259,31.436,35.731,42.196999999999996
38.992,40.864000000000004,31.256,31.395,35.808,41.986000000000004
39.827,40.583,31.253,31.357,35.881,41.75899999999999
40.639,40.306,31.252,31.322,35.95,41.521
41.41,40.031,31.253,31.29,36.013000000000005,41.277
42.125,39.76,31.253,31.258000000000003,36.071,41.03
42.771,39.491,31.255,31.225,36.122,40.783
43.341,39.224000000000004,31.256999999999998,31.191,36.167,40.537
43.825,38.959,31.259,31.154,36.204,40.293
44.223,38.698,31.26,31.115,36.233000000000004,40.053000000000004
44.532,38.441,31.261,31.072,36.255,39.815
44.756,38.188,31.261999999999997,31.026,36.268,39.579
44.898,37.942,31.261999999999997,30.978,36.273,39.345
44.963,37.702,31.261999999999997,30.928,36.27,39.111
44.957,37.468,31.261999999999997,30.877,36.26,38.876
44.89,37.238,31.261999999999997,30.825,36.242,38.641
44.769,37.010999999999996,31.264,30.772,36.216,38.405
44.604,36.785,31.266,30.718000000000004,36.181999999999995,38.17
44.403999999999996,36.561,31.269000000000002,30.664,36.141,37.936
44.175,36.338,31.273000000000003,30.61,36.094,37.704
43.926,36.116,31.278000000000002,30.559,36.042,37.474000000000004
43.662,35.896,31.283,30.51,35.986,37.247
43.388000000000005,35.679,31.289,30.464000000000002,35.926,37.023
43.108000000000004,35.465,31.296,30.421,35.863,36.804
42.824,35.255,31.302,30.38,35.797,36.59
42.541000000000004,35.051,31.309,30.342,35.729,36.38
42.25899999999999,34.856,31.316,30.305,35.659,36.175
41.978,34.672,31.325,30.271,35.588,35.974000000000004
41.7,34.5,31.336,30.239,35.519,35.78
41.423,34.344,31.351999999999997,30.209,35.45,35.59
41.146,34.205999999999996,31.374000000000002,30.183000000000003,35.384,35.406
40.87,34.088,31.406,30.159000000000002,35.319,35.226
40.593,33.991,31.45,30.138,35.257,35.05
40.316,33.914,31.51,30.121,35.196,34.876
40.038000000000004,33.859,31.590999999999998,30.109,35.139,34.704
39.760999999999996,33.827,31.698,30.101999999999997,35.084,34.534
39.483000000000004,33.816,31.836,30.101999999999997,35.031,34.367
39.205,33.825,32.012,30.111,34.979,34.203
38.927,33.853,32.233000000000004,30.128,34.927,34.041
38.65,33.900999999999996,32.505,30.154,34.878,33.883
38.374,33.965,32.832,30.189,34.829,33.73
38.101,34.044000000000004,33.22,30.232,34.783,33.582
37.83,34.135999999999996,33.672,30.284000000000002,34.74,33.442
37.562,34.242,34.188,30.344,34.7,33.312
37.298,34.358000000000004,34.766999999999996,30.414,34.664,33.193000000000005
37.037,34.485,35.404,30.495,34.632,33.088
36.782,34.62,36.092,30.59,34.604,32.997
36.533,34.76,36.823,30.701,34.582,32.922
36.292,34.906,37.586,30.834,34.565,32.863
36.059,35.055,38.369,30.995,34.555,32.821999999999996
35.834,35.205,39.158,31.191999999999997,34.55,32.798
35.619,35.354,39.94,31.43,34.552,32.793
35.414,35.501,40.702,31.718000000000004,34.56,32.805
35.22,35.644,41.431000000000004,32.062,34.573,32.836
35.038000000000004,35.78,42.114,32.466,34.59,32.882
34.869,35.909,42.743,32.935,34.611,32.944
34.715,36.027,43.308,33.47,34.634,33.019
34.577,36.135,43.805,34.067,34.659,33.108000000000004
34.457,36.229,44.229,34.721,34.687,33.208
34.357,36.306999999999995,44.578,35.427,34.715,33.318000000000005
34.278,36.37,44.851000000000006,36.174,34.744,33.437
34.22,36.417,45.051,36.95,34.773,33.562
34.183,36.448,45.181000000000004,37.741,34.8,33.693000000000005
34.17,36.463,45.245,38.533,34.825,33.829
34.179,36.461999999999996,45.248000000000005,39.309,34.846,33.967
34.211,36.446,45.193999999999996,40.056,34.863,34.108000000000004
34.265,36.416,45.092,40.760999999999996,34.875,34.249
34.342,36.373000000000005,44.948,41.411,34.881,34.389
34.439,36.317,44.766000000000005,41.994,34.878,34.524
34.556999999999995,36.251,44.555,42.501999999999995,34.868,34.652
34.691,36.176,44.32,42.928999999999995,34.849000000000004,34.773
34.841,36.093,44.067,43.275,34.823,34.884
35.003,36.005,43.8,43.537,34.791,34.984
35.175,35.913000000000004,43.523999999999994,43.718999999999994,34.754,35.071999999999996
35.356,35.819,43.242,43.824,34.714,35.146
35.541,35.722,42.957,43.858000000000004,34.671,35.207
35.728,35.624,42.67100000000001,43.828,34.629,35.255
35.915,35.523,42.385,43.742,34.589,35.289
36.099000000000004,35.421,42.101000000000006,43.608000000000004,34.555,35.309
36.275,35.316,41.818000000000005,43.434,34.531,35.318000000000005
36.442,35.209,41.537,43.227,34.522,35.314
36.596,35.101,41.257,42.995,34.533,35.299
36.736,34.992,40.98,42.743,34.569,35.272
36.859,34.883,40.705,42.479,34.634,35.234
36.965,34.773,40.431999999999995,42.205,34.734,35.187
37.051,34.662,40.162,41.926,34.873000000000005,35.131
37.119,34.55,39.893,41.644,35.054,35.067
37.167,34.437,39.626,41.364,35.281,34.998000000000005
37.196999999999996,34.323,39.361,41.085,35.552,34.926
37.21,34.209,39.096,40.812,35.867,34.849000000000004
37.207,34.094,38.833,40.543,36.223,34.771
37.189,33.98,38.571,40.279,36.614000000000004,34.69
37.156,33.866,38.312,40.021,37.033,34.607
37.11,33.753,38.056999999999995,39.766999999999996,37.472,34.523
37.051,33.643,37.806,39.519,37.922,34.436
36.98,33.537,37.561,39.275,38.373000000000005,34.347
36.898,33.435,37.321999999999996,39.037,38.816,34.255
36.805,33.339,37.089,38.801,39.24,34.161
36.7,33.248000000000005,36.863,38.567,39.637,34.066
36.584,33.163000000000004,36.644,38.335,40.001,33.97
36.458,33.083,36.433,38.104,40.326,33.875
36.323,33.007,36.23,37.874,40.607,33.78
36.181999999999995,32.935,36.036,37.645,40.842,33.686
36.035,32.866,35.851,37.417,41.03,33.593
35.884,32.8,35.676,37.19,41.17,33.501
35.731,32.736,35.512,36.963,41.265,33.41
35.578,32.674,35.36,36.735,41.316,33.319
35.425,32.615,35.221,36.506,41.326,33.228
35.273,32.559,35.096,36.278,41.3,33.137
35.124,32.504,34.986,36.052,41.242,33.046
34.977,32.453,34.89,35.829,41.156000000000006,32.954
34.833,32.405,34.808,35.609,41.048,32.864000000000004
34.692,32.361,34.741,35.394,40.92,32.775
34.552,32.32,34.688,35.185,40.777,32.689
34.415,32.282,34.649,34.985,40.623000000000005,32.605
34.277,32.246,34.626,34.795,40.461999999999996,32.525
34.14,32.211,34.617,34.618,40.295,32.449
34.003,32.177,34.624,34.455999999999996,40.126,32.376
33.866,32.143,34.645,34.311,39.958,32.308
33.73,32.111,34.68,34.185,39.792,32.244
33.596,32.08,34.729,34.079,39.63,32.184
33.467,32.05,34.792,33.995,39.473,32.129
33.343,32.021,34.868,33.934,39.321,32.078
33.226,31.994,34.957,33.896,39.174,32.032
33.116,31.969,35.058,33.883,39.033,31.989
33.014,31.947,35.17,33.894,38.896,31.95
32.918,31.929000000000002,35.29,33.929,38.765,31.914
32.828,31.914,35.417,33.986999999999995,38.638000000000005,31.881
32.742,31.901999999999997,35.551,34.066,38.515,31.851999999999997
32.661,31.893,35.689,34.165,38.395,31.826
32.584,31.886,35.83,34.282,38.279,31.805
32.510999999999996,31.88,35.973,34.414,38.165,31.789
32.441,31.875,36.115,34.559,38.054,31.778000000000002
32.376,31.871,36.255,34.717,37.946999999999996,31.77
32.317,31.866999999999997,36.394,34.883,37.842,31.764
32.264,31.862,36.53,35.056,37.74,31.761
32.217,31.855999999999998,36.662,35.233000000000004,37.64,31.759
32.176,31.849,36.789,35.413000000000004,37.54,31.759
32.141,31.840999999999998,36.909,35.593,37.441,31.76
32.11,31.83,37.023,35.772,37.342,31.761
32.083,31.816,37.129,35.948,37.242,31.761
32.058,31.801,37.227,36.119,37.14,31.761
32.035,31.784000000000002,37.321,36.282,37.035,31.761
32.012,31.766,37.424,36.435,36.927,31.761999999999997
31.991,31.75,37.547,36.578,36.814,31.763
31.97,31.735,37.695,36.71,36.696999999999996,31.765
31.949,31.721999999999998,37.867,36.829,36.574,31.766
31.93,31.714000000000002,38.055,36.934,36.446,31.768
31.912,31.711,38.245,37.025,36.314,31.769000000000002
31.897,31.715999999999998,38.425,37.1,36.177,31.771
31.885,31.734,38.58,37.161,36.04,31.773000000000003
31.875999999999998,31.77,38.699,37.207,35.903,31.776
31.871,31.83,38.775,37.238,35.77,31.78
31.87,31.921999999999997,38.803000000000004,37.255,35.641999999999996,31.784000000000002
31.872,32.052,38.783,37.259,35.522,31.788
31.875999999999998,32.23,38.718,37.248000000000005,35.412,31.789
31.879,32.461999999999996,38.613,37.225,35.312,31.79
31.881,32.755,38.476,37.189,35.224000000000004,31.788
31.88,33.116,38.314,37.141999999999996,35.147,31.785999999999998
31.878,33.547,38.134,37.085,35.084,31.781999999999996
31.874000000000002,34.051,37.945,37.02,35.034,31.779
31.87,34.625,37.754,36.948,34.998000000000005,31.776999999999997
31.866999999999997,35.266999999999996,37.567,36.87,34.976,31.779
31.866999999999997,35.968,37.388000000000005,36.788000000000004,34.967,31.785999999999998
31.875999999999998,36.718,37.222,36.701,34.972,31.802
31.895,37.505,37.07,36.611,34.988,31.831
31.930999999999997,38.312,36.933,36.516999999999996,35.016,31.881
31.988000000000003,39.124,36.811,36.421,35.053000000000004,31.956999999999997
32.075,39.925,36.703,36.323,35.099000000000004,32.068000000000005
32.198,40.698,36.606,36.223,35.153,32.22
32.367,41.43,36.516999999999996,36.121,35.213,32.423
32.59,42.106,36.434,36.016999999999996,35.28,32.683
32.876,42.717,36.354,35.91,35.352,33.006
33.23,43.254,36.273,35.802,35.428000000000004,33.393
33.656,43.711999999999996,36.19,35.693000000000005,35.506,33.845
34.156,44.088,36.102,35.584,35.586999999999996,34.359
34.728,44.38,36.008,35.474000000000004,35.666,34.929
35.368,44.59,35.907,35.363,35.743,35.544000000000004
36.067,44.723,35.798,35.251,35.817,36.194
36.814,44.783,35.681,35.137,35.887,36.863
37.593,44.777,35.556999999999995,35.02,35.951,37.537
38.39,44.711000000000006,35.428000000000004,34.902,36.010999999999996,38.2
39.186,44.593999999999994,35.294000000000004,34.782,36.064,38.839
39.966,44.433,35.158,34.662,36.11,39.441
40.711999999999996,44.236999999999995,35.022,34.542,36.149,39.994
41.411,44.013000000000005,34.888000000000005,34.422,36.181,40.489000000000004
42.05,43.768,34.758,34.303000000000004,36.205999999999996,40.921
42.619,43.508,34.634,34.185,36.225,41.284
43.111999999999995,43.236999999999995,34.518,34.069,36.236999999999995,41.577
43.522,42.958999999999996,34.409,33.955999999999996,36.242,41.799
43.849,42.678000000000004,34.309,33.846,36.239000000000004,41.952
44.093999999999994,42.395,34.218,33.742,36.229,42.041000000000004
44.258,42.11,34.134,33.641999999999996,36.211999999999996,42.071000000000005
44.348,41.825,34.056999999999995,33.547,36.187,42.047
44.369,41.541000000000004,33.988,33.458,36.155,41.977
44.32899999999999,41.25899999999999,33.924,33.373000000000005,36.117,41.867
44.236999999999995,40.978,33.866,33.292,36.071999999999996,41.726000000000006
44.099,40.699,33.812,33.215,36.022,41.558
43.925,40.424,33.762,33.14,35.967,41.372
43.723,40.152,33.715,33.067,35.907,41.17100000000001
43.501999999999995,39.883,33.67,32.996,35.843,40.959
43.269,39.618,33.628,32.927,35.775999999999996,40.74
43.028999999999996,39.356,33.586999999999996,32.86,35.705,40.516
42.785,39.098,33.546,32.795,35.633,40.287
42.538000000000004,38.843,33.505,32.732,35.559,40.055
42.287,38.591,33.463,32.671,35.484,39.823
42.034,38.343,33.42,32.611999999999995,35.409,39.591
41.776,38.101,33.378,32.555,35.332,39.361
41.515,37.861999999999995,33.336999999999996,32.5,35.255,39.134
41.248000000000005,37.625,33.296,32.448,35.176,38.909
40.977,37.391999999999996,33.257,32.398,35.096,38.688
40.701,37.161,33.219,32.352,35.016,38.469
40.42,36.933,33.181999999999995,32.311,34.936,38.254
40.135999999999996,36.707,33.148,32.275999999999996,34.855,38.043
39.848,36.483000000000004,33.117,32.247,34.774,37.835
39.558,36.260999999999996,33.086999999999996,32.223,34.694,37.631
39.268,36.043,33.06,32.203,34.613,37.43
38.982,35.829,33.035,32.184,34.532,37.233000000000004
38.7,35.618,33.010999999999996,32.166,34.451,37.041
38.424,35.412,32.986999999999995,32.147,34.371,36.853
38.153,35.214,32.965,32.126,34.293,36.67
37.888000000000005,35.024,32.942,32.104,34.217,36.493
37.628,34.845,32.921,32.08,34.141999999999996,36.323
37.372,34.679,32.9,32.055,34.068000000000005,36.159
37.12,34.529,32.88,32.03,33.996,36.001
36.872,34.393,32.861,32.006,33.925,35.851
36.626999999999995,34.275,32.842,31.983,33.855,35.705999999999996
36.385,34.173,32.825,31.961,33.787,35.566
36.147,34.089,32.809,31.94,33.722,35.43
35.912,34.024,32.795,31.918000000000003,33.659,35.298
35.681999999999995,33.978,32.782,31.896,33.597,35.169000000000004
35.458,33.951,32.77,31.872,33.538000000000004,35.044000000000004
35.241,33.945,32.758,31.848000000000003,33.481,34.923
35.032,33.959,32.746,31.823,33.427,34.806
34.833,33.991,32.733000000000004,31.799,33.376999999999995,34.695
34.645,34.041,32.72,31.774,33.332,34.59
34.468,34.107,32.705,31.75,33.292,34.492
34.306,34.191,32.69,31.726,33.257,34.404
34.16,34.288000000000004,32.673,31.704,33.226,34.329
34.033,34.399,32.656,31.683000000000003,33.2,34.269
33.927,34.522,32.639,31.666999999999998,33.176,34.225
33.843,34.655,32.625,31.656999999999996,33.156,34.198
33.783,34.796,32.613,31.656999999999996,33.139,34.19
33.746,34.944,32.606,31.67,33.125,34.199
33.735,35.094,32.606,31.701999999999998,33.114000000000004,34.226
33.749,35.246,32.615,31.76,33.105,34.271
33.786,35.398,32.637,31.851999999999997,33.099000000000004,34.333
33.846,35.548,32.674,31.986,33.094,34.41
33.925,35.692,32.73,32.17,33.091,34.501
34.024,35.83,32.812,32.414,33.089,34.606
34.14,35.958,32.924,32.722,33.086999999999996,34.723
34.272,36.076,33.071999999999996,33.1,33.084,34.851
34.419000000000004,36.181,33.262,33.549,33.08,34.986
34.577,36.271,33.501,34.068000000000005,33.074,35.126999999999995
34.745,36.348,33.793,34.654,33.067,35.27
34.921,36.41,34.143,35.3,33.056999999999995,35.412
35.102,36.457,34.554,35.994,33.045,35.552
35.284,36.49,35.028,36.725,33.033,35.689
35.467,36.51,35.564,37.478,33.021,35.819
35.648,36.516,36.16,38.241,33.012,35.943000000000005
35.825,36.509,36.81,38.998000000000005,33.009,36.058
35.995,36.489000000000004,37.505,39.733000000000004,33.016999999999996,36.164
36.153,36.457,38.236999999999995,40.433,33.039,36.26
36.299,36.415,38.992,41.083999999999996,33.079,36.346
36.43,36.363,39.758,41.676,33.144,36.423
36.542,36.302,40.521,42.198,33.238,36.489000000000004
36.634,36.232,41.266999999999996,42.645,33.367,36.544000000000004
36.704,36.153,41.982,43.011,33.535,36.586999999999996
36.751999999999995,36.066,42.655,43.297,33.746,36.619
36.777,35.972,43.276,43.501999999999995,34.001999999999995,36.639
36.78,35.872,43.833999999999996,43.63,34.305,36.647
36.763000000000005,35.766,44.325,43.687,34.652,36.641999999999996
36.729,35.657,44.743,43.68,35.041,36.626
36.677,35.546,45.085,43.615,35.468,36.599000000000004
36.611999999999995,35.433,45.351000000000006,43.501000000000005,35.925,36.563
36.535,35.32,45.54,43.346000000000004,36.406,36.518
36.449,35.208,45.656000000000006,43.158,36.900999999999996,36.464
36.355,35.095,45.70399999999999,42.946000000000005,37.402,36.402
36.255,34.983000000000004,45.688,42.716,37.9,36.332
36.148,34.873000000000005,45.61600000000001,42.475,38.39,36.255
36.035,34.763000000000005,45.493,42.227,38.863,36.17
35.916,34.655,45.326,41.976000000000006,39.314,36.079
35.792,34.548,45.122,41.724,39.736,35.981
35.662,34.444,44.888000000000005,41.474,40.124,35.876999999999995
35.525999999999996,34.343,44.629,41.226000000000006,40.475,35.768
35.384,34.246,44.35,40.981,40.785,35.654
35.238,34.152,44.058,40.738,41.052,35.536
35.089,34.061,43.758,40.496,41.277,35.414
34.937,33.974000000000004,43.451,40.254,41.458,35.29
34.783,33.89,43.143,40.009,41.596000000000004,35.164
34.628,33.808,42.835,39.76,41.693000000000005,35.04
34.474000000000004,33.727,42.527,39.505,41.751000000000005,34.917
34.321999999999996,33.648,42.223,39.242,41.77,34.795
34.172,33.57,41.922,38.971,41.754,34.676
34.027,33.493,41.623999999999995,38.693000000000005,41.70399999999999,34.56
33.885,33.416,41.32899999999999,38.41,41.623999999999995,34.446
33.747,33.341,41.038999999999994,38.125,41.518,34.333
33.614000000000004,33.266,40.751,37.842,41.388999999999996,34.223
33.483000000000004,33.193000000000005,40.467,37.564,41.24100000000001,34.114000000000004
33.355,33.121,40.186,37.293,41.077,34.007
33.229,33.05,39.908,37.03,40.9,33.9
33.105,32.982,39.631,36.777,40.715,33.793
32.984,32.916,39.358000000000004,36.534,40.524,33.689
32.867,32.853,39.086999999999996,36.302,40.329,33.586
32.753,32.792,38.819,36.08,40.135,33.486
32.645,32.734,38.554,35.868,39.943000000000005,33.389
32.542,32.684,38.292,35.665,39.754,33.293
32.443000000000005,32.641,38.034,35.471,39.571,33.199
32.349000000000004,32.607,37.781,35.283,39.395,33.108000000000004
32.259,32.579,37.531,35.101,39.225,33.018
32.173,32.556999999999995,37.285,34.925,39.063,32.931999999999995
32.091,32.536,37.044000000000004,34.754,38.908,32.848
32.014,32.516,36.809,34.588,38.762,32.768
31.941,32.494,36.578,34.426,38.623000000000005,32.692
31.873,32.471,36.355,34.271,38.493,32.621
31.811,32.445,36.138000000000005,34.121,38.371,32.553000000000004
31.756,32.416,35.928000000000004,33.978,38.256,32.491
31.706999999999997,32.384,35.726,33.842,38.147,32.434
31.666,32.352,35.532,33.715,38.042,32.383
31.63,32.319,35.348,33.597,37.942,32.336999999999996
31.601,32.287,35.174,33.489000000000004,37.846,32.296
31.576999999999998,32.255,35.012,33.393,37.753,32.259
31.558000000000003,32.225,34.863,33.309,37.662,32.226
31.541,32.196999999999996,34.729,33.238,37.574,32.196999999999996
31.526,32.171,34.611,33.181,37.486999999999995,32.171
31.511,32.149,34.509,33.139,37.4,32.148
31.497,32.129,34.423,33.111999999999995,37.313,32.129
31.483,32.113,34.354,33.099000000000004,37.226,32.111999999999995
31.469,32.1,34.302,33.1,37.137,32.096
31.456,32.091,34.266,33.116,37.046,32.080999999999996
31.445,32.085,34.249,33.144,36.953,32.065
31.436,32.083,34.248000000000005,33.185,36.857,32.049
31.429000000000002,32.084,34.263000000000005,33.239000000000004,36.76,32.031
31.424,32.089,34.294000000000004,33.303000000000004,36.661,32.013000000000005
31.423000000000002,32.1,34.34,33.381,36.562,31.994
31.424,32.121,34.4,33.474000000000004,36.463,31.976
31.426,32.153,34.471,33.580999999999996,36.366,31.956999999999997
31.430999999999997,32.204,34.554,33.7,36.27,31.94
31.436,32.277,34.644,33.827,36.177,31.925
31.441999999999997,32.38,34.738,33.959,36.086,31.912
31.448,32.519,34.832,34.092,36.0,31.901999999999997
31.455,32.701,34.926,34.223,35.919000000000004,31.895
31.463,32.933,35.018,34.349000000000004,35.844,31.891
31.474,33.222,35.111999999999995,34.466,35.777,31.889
31.487,33.574,35.209,34.574,35.719,31.89
31.503,33.992,35.311,34.671,35.67,31.892
31.522,34.475,35.418,34.756,35.631,31.895
31.546,35.023,35.532,34.829,35.601,31.899
31.575,35.63,35.65,34.891999999999996,35.582,31.903000000000002
31.61,36.287,35.774,34.944,35.573,31.906999999999996
31.653000000000002,36.984,35.9,34.986999999999995,35.575,31.909000000000002
31.706,37.708,36.027,35.022,35.588,31.909000000000002
31.774,38.444,36.150999999999996,35.049,35.61,31.909000000000002
31.861,39.179,36.271,35.07,35.641999999999996,31.909000000000002
31.974,39.899,36.382,35.084,35.681999999999995,31.906999999999996
32.121,40.589,36.482,35.091,35.729,31.906
32.312,41.236999999999995,36.567,35.091,35.781,31.903000000000002
32.554,41.833999999999996,36.637,35.085,35.838,31.901
32.859,42.371,36.69,35.073,35.896,31.9
33.232,42.84,36.725,35.056,35.955,31.903000000000002
33.679,43.238,36.743,35.035,36.014,31.914
34.201,43.563,36.745,35.007,36.07,31.94
34.796,43.81399999999999,36.732,34.974000000000004,36.122,31.986
35.457,43.992,36.703,34.935,36.169000000000004,32.06
36.175,44.102,36.66,34.888000000000005,36.211,32.171
36.937,44.148999999999994,36.604,34.836,36.246,32.325
37.73,44.138000000000005,36.535,34.78,36.275,32.53
38.535,44.078,36.455999999999996,34.72,36.296,32.791
39.338,43.976000000000006,36.368,34.658,36.308,33.111999999999995
40.121,43.839,36.273,34.594,36.311,33.493
40.87,43.673,36.172,34.53,36.305,33.935
41.568999999999996,43.483999999999995,36.067,34.465,36.287,34.433
42.208999999999996,43.275,35.959,34.398,36.259,34.98
42.78,43.049,35.85,34.332,36.22,35.568000000000005
43.275,42.81,35.739000000000004,34.266,36.169000000000004,36.184
43.692,42.56,35.628,34.2,36.108000000000004,36.818000000000005
44.028,42.303999999999995,35.516999999999996,34.134,36.037,37.454
44.284,42.042,35.408,34.067,35.955,38.08
44.464,41.777,35.3,34.0,35.864000000000004,38.681999999999995
44.573,41.512,35.192,33.933,35.765,39.25
44.61600000000001,41.246,35.086,33.866,35.657,39.773
44.599,40.981,34.98,33.798,35.542,40.243
44.531000000000006,40.715,34.875,33.731,35.422,40.655
44.418,40.45,34.771,33.664,35.297,41.005
44.268,40.185,34.668,33.598,35.169000000000004,41.288999999999994
44.086999999999996,39.92,34.566,33.532,35.038000000000004,41.508
43.88,39.656,34.466,33.468,34.907,41.662
43.653,39.393,34.368,33.406,34.775999999999996,41.755
43.41,39.133,34.272,33.346,34.645,41.79
43.156000000000006,38.876,34.178000000000004,33.289,34.516,41.771
42.891999999999996,38.622,34.084,33.236,34.389,41.706
42.622,38.371,33.99,33.185,34.264,41.601000000000006
42.349,38.123000000000005,33.898,33.138000000000005,34.144,41.463
42.073,37.879,33.805,33.094,34.027,41.299
41.79600000000001,37.637,33.713,33.051,33.916,41.11600000000001
41.52,37.397,33.621,33.01,33.809,40.918
41.244,37.159,33.531,32.969,33.705999999999996,40.711999999999996
40.968999999999994,36.923,33.442,32.929,33.607,40.501
40.695,36.689,33.356,32.89,33.512,40.287
40.423,36.458,33.273,32.851,33.42,40.075
40.152,36.23,33.193000000000005,32.812,33.33,39.865
39.883,36.005,33.117,32.772,33.245,39.658
39.617,35.786,33.045,32.732,33.163000000000004,39.455
39.355,35.571,32.976,32.689,33.084,39.255
39.097,35.361999999999995,32.911,32.644,33.010999999999996,39.056999999999995
38.845,35.162,32.849000000000004,32.598,32.943000000000005,38.861
38.6,34.969,32.788000000000004,32.552,32.88,38.665
38.361999999999995,34.787,32.729,32.505,32.823,38.468
38.132,34.617,32.67,32.458,32.771,38.271
37.909,34.461,32.613,32.413000000000004,32.726,38.074
37.693000000000005,34.32,32.556999999999995,32.368,32.685,37.876999999999995
37.482,34.196999999999996,32.503,32.325,32.65,37.68
37.275,34.094,32.45,32.284,32.622,37.483000000000004
37.071999999999996,34.010999999999996,32.400999999999996,32.245,32.599000000000004,37.288000000000004
36.869,33.952,32.354,32.207,32.584,37.095
36.666,33.915,32.312,32.171,32.576,36.904
36.461999999999996,33.9,32.273,32.137,32.575,36.718
36.257,33.908,32.238,32.105,32.580999999999996,36.536
36.052,33.938,32.205999999999996,32.074,32.592,36.36
35.85,33.989000000000004,32.177,32.045,32.608000000000004,36.189
35.652,34.06,32.15,32.018,32.626999999999995,36.024
35.461999999999996,34.15,32.126,31.994,32.649,35.865
35.282,34.259,32.102,31.971999999999998,32.672,35.71
35.116,34.383,32.078,31.951999999999998,32.696999999999996,35.56
34.967,34.52,32.054,31.935,32.722,35.413000000000004
34.836,34.668,32.03,31.92,32.748000000000005,35.27
34.725,34.825,32.005,31.905,32.771,35.13
34.635999999999996,34.988,31.979,31.892,32.793,34.994
34.567,35.153,31.953000000000003,31.88,32.811,34.859
34.518,35.318000000000005,31.927,31.869,32.824,34.728
34.489000000000004,35.482,31.901,31.859,32.833,34.599000000000004
34.479,35.641999999999996,31.877,31.85,32.838,34.471
34.486999999999995,35.797,31.855,31.844,32.839,34.344
34.512,35.944,31.833000000000002,31.84,32.834,34.218
34.553000000000004,36.083,31.814,31.837,32.826,34.095
34.609,36.211999999999996,31.798000000000002,31.836,32.813,33.975
34.678000000000004,36.328,31.785,31.837,32.798,33.86
34.76,36.429,31.776,31.839000000000002,32.781,33.751
34.856,36.516,31.771,31.844,32.763000000000005,33.648
34.966,36.586999999999996,31.768,31.851,32.744,33.553000000000004
35.088,36.641999999999996,31.767,31.86,32.726,33.468
35.223,36.68,31.767,31.869,32.708,33.391999999999996
35.368,36.702,31.769000000000002,31.878,32.69,33.327
35.521,36.71,31.771,31.885,32.67,33.275
35.679,36.705,31.774,31.889,32.649,33.236999999999995
35.841,36.687,31.776999999999997,31.891,32.626,33.213
36.001,36.657,31.78,31.891,32.603,33.203
36.158,36.616,31.783,31.888,32.578,33.205999999999996
36.308,36.564,31.785999999999998,31.883000000000003,32.555,33.223
36.446999999999996,36.501,31.788,31.877,32.533,33.253
36.574,36.429,31.79,31.87,32.515,33.295
36.684,36.348,31.791,31.862,32.504,33.349000000000004
36.775999999999996,36.259,31.791999999999998,31.855,32.505,33.414
36.847,36.164,31.791999999999998,31.849,32.521,33.49
36.896,36.063,31.791,31.846,32.559,33.575
36.925,35.955999999999996,31.79,31.85,32.624,33.668
36.934,35.847,31.789,31.864,32.722,33.769
36.925,35.735,31.788,31.894000000000002,32.859,33.874
36.898,35.621,31.788,31.945999999999998,33.04,33.983000000000004
36.856,35.506,31.789,32.027,33.269,34.093
36.799,35.39,31.789,32.144,33.548,34.203
36.728,35.275,31.789,32.304,33.879,34.31
36.645,35.16,31.789,32.516,34.26,34.413000000000004
36.551,35.046,31.789,32.786,34.687,34.510999999999996
36.449,34.931,31.79,33.12,35.156,34.602
36.338,34.818000000000005,31.794,33.521,35.658,34.686
36.22,34.705,31.803,33.989000000000004,36.184,34.760999999999996
36.095,34.593,31.819000000000003,34.524,36.722,34.828
35.965,34.482,31.845,35.119,37.260999999999996,34.884
35.830999999999996,34.373000000000005,31.885,35.766,37.79,34.931
35.694,34.266999999999996,31.944000000000003,36.454,38.297,34.967
35.554,34.163000000000004,32.027,37.17,38.773,34.992
35.414,34.062,32.141,37.899,39.209,35.008
35.272,33.964,32.292,38.626999999999995,39.599000000000004,35.014
35.13,33.869,32.485,39.339,39.937,35.009
34.986999999999995,33.777,32.729,40.021,40.221,34.995
34.844,33.687,33.028,40.66,40.449,34.971
34.701,33.599000000000004,33.388000000000005,41.247,40.622,34.938
34.556999999999995,33.513000000000005,33.813,41.772,40.741,34.895
34.415,33.428000000000004,34.306,42.23,40.812,34.845
34.274,33.346,34.866,42.618,40.836,34.788000000000004
34.134,33.266,35.49,42.93600000000001,40.821,34.726
33.995,33.191,36.174,43.183,40.77,34.661
33.856,33.12,36.908,43.363,40.688,34.592
33.718,33.056,37.681,43.477,40.58,34.521
33.579,32.996,38.482,43.533,40.449,34.446999999999996
33.442,32.942,39.297,43.536,40.301,34.372
33.306999999999995,32.891999999999996,40.111,43.492,40.14,34.293
33.175,32.846,40.909,43.407,39.969,34.211999999999996
33.047,32.804,41.677,43.288999999999994,39.792,34.129
32.923,32.765,42.402,43.143,39.611,34.043
32.805,32.73,43.071000000000005,42.975,39.428000000000004,33.957
32.691,32.696,43.675,42.791000000000004,39.243,33.87
32.584,32.664,44.205,42.596000000000004,39.058,33.784
32.484,32.632,44.656000000000006,42.391999999999996,38.873000000000005,33.698
32.391999999999996,32.6,45.026,42.184,38.688,33.614000000000004
32.306999999999995,32.567,45.313,41.972,38.503,33.53
32.229,32.533,45.519,41.75899999999999,38.317,33.446999999999996
32.158,32.498000000000005,45.646,41.54600000000001,38.13,33.363
32.093,32.461999999999996,45.699,41.333999999999996,37.942,33.278
32.033,32.426,45.684,41.123000000000005,37.753,33.192
31.976999999999997,32.39,45.608000000000004,40.913000000000004,37.564,33.105
31.924,32.354,45.477,40.704,37.374,33.016
31.874000000000002,32.319,45.301,40.496,37.184,32.926
31.826,32.286,45.088,40.289,36.995,32.836999999999996
31.781,32.254,44.845,40.083,36.806,32.749
31.739,32.225,44.581,39.878,36.617,32.664
31.698,32.196999999999996,44.301,39.674,36.43,32.582
31.66,32.173,44.012,39.472,36.246,32.501999999999995
31.624000000000002,32.153,43.718,39.27,36.065,32.425
31.590999999999998,32.138000000000005,43.422,39.07,35.888000000000005,32.349000000000004
31.561999999999998,32.131,43.126999999999995,38.872,35.716,32.275999999999996
31.537,32.135,42.835,38.675,35.551,32.205
31.516,32.154,42.54600000000001,38.481,35.391,32.137
31.498,32.192,42.261,38.289,35.236999999999995,32.073
31.483,32.256,41.98,38.101,35.089,32.013000000000005
31.47,32.352,41.70399999999999,37.918,34.945,31.956999999999997
31.458000000000002,32.489000000000004,41.431000000000004,37.739000000000004,34.804,31.904
31.445999999999998,32.674,41.163000000000004,37.565,34.666,31.855
31.436999999999998,32.914,40.899,37.394,34.531,31.808000000000003
31.429000000000002,33.218,40.639,37.226,34.396,31.765
31.425,33.588,40.383,37.061,34.262,31.723000000000003
31.425,34.028,40.131,36.895,34.129,31.684
31.43,34.536,39.883,36.73,33.997,31.647
31.441,35.109,39.638000000000005,36.565,33.866,31.612
31.456999999999997,35.74,39.396,36.399,33.738,31.579
31.476999999999997,36.421,39.157,36.233000000000004,33.611999999999995,31.548000000000002
31.499000000000002,37.139,38.922,36.068000000000005,33.49,31.521
31.524,37.881,38.689,35.904,33.373000000000005,31.496
31.549,38.635,38.459,35.743,33.263000000000005,31.474
31.576999999999998,39.385,38.232,35.585,33.161,31.455
31.605,40.116,38.008,35.431999999999995,33.067,31.438000000000002
31.635,40.817,37.786,35.285,32.984,31.423000000000002
31.666,41.474,37.568000000000005,35.146,32.912,31.410999999999998
31.697,42.078,37.352,35.016,32.853,31.401
31.726,42.62,37.14,34.895,32.808,31.394000000000002
31.754,43.093,36.931,34.786,32.777,31.39
31.779,43.493,36.729,34.687,32.762,31.389
31.8,43.818000000000005,36.532,34.602,32.763000000000005,31.392
31.816,44.07,36.342,34.529,32.78,31.397
31.825,44.248999999999995,36.16,34.471,32.813,31.404
31.83,44.361000000000004,35.986,34.426,32.861,31.412
31.831,44.41,35.821,34.396,32.923,31.42
31.828000000000003,44.402,35.665,34.379,32.999,31.428
31.825,44.343999999999994,35.519,34.375,33.086999999999996,31.436
31.820999999999998,44.243,35.383,34.385,33.186,31.445
31.82,44.105,35.259,34.408,33.294000000000004,31.454
31.826,43.94,35.147,34.443000000000005,33.409,31.463
31.842,43.751000000000005,35.049,34.491,33.53,31.471999999999998
31.875,43.545,34.964,34.552,33.654,31.480999999999998
31.93,43.325,34.893,34.623000000000005,33.78,31.49
32.014,43.097,34.836,34.703,33.905,31.499000000000002
32.134,42.863,34.794000000000004,34.79,34.028,31.506999999999998
32.301,42.626000000000005,34.766999999999996,34.884,34.147,31.517
32.52,42.386,34.755,34.981,34.26,31.526999999999997
32.8,42.146,34.758,35.078,34.367,31.537
33.147,41.906000000000006,34.774,35.175,34.467,31.548000000000002
33.567,41.667,34.803000000000004,35.269,34.559,31.56
34.063,41.428000000000004,34.844,35.359,34.641,31.573
34.635,41.18899999999999,34.898,35.444,34.713,31.587
35.275999999999996,40.95,34.961999999999996,35.523,34.775999999999996,31.601999999999997
35.98,40.711999999999996,35.038000000000004,35.595,34.83,31.618000000000002
36.734,40.475,35.122,35.66,34.876,31.633000000000003
37.524,40.239000000000004,35.215,35.717,34.912,31.647
38.333,40.005,35.316,35.766,34.94,31.660999999999998
39.144,39.773,35.421,35.808,34.959,31.671999999999997
39.94,39.543,35.53,35.841,34.968,31.682
40.704,39.316,35.641999999999996,35.866,34.97,31.689
41.422,39.092,35.755,35.883,34.964,31.694000000000003
42.08,38.872,35.867,35.891999999999996,34.95,31.697
42.669,38.656,35.976,35.893,34.931,31.698
43.18,38.442,36.082,35.885,34.905,31.697
43.611000000000004,38.232,36.181,35.871,34.874,31.694000000000003
43.958,38.025,36.273,35.85,34.839,31.688000000000002
44.223,37.82,36.358000000000004,35.823,34.799,31.680999999999997
44.409,37.619,36.434,35.791,34.757,31.677
44.52,37.421,36.501,35.755,34.714,31.679000000000002
44.56100000000001,37.226,36.56,35.716,34.671,31.691
44.541000000000004,37.034,36.61,35.674,34.626999999999995,31.718000000000004
44.466,36.845,36.649,35.628,34.583,31.764
44.345,36.659,36.677,35.579,34.538000000000004,31.837
44.18600000000001,36.476,36.694,35.525,34.494,31.941999999999997
43.995,36.296,36.699,35.466,34.45,32.089
43.78,36.121,36.693000000000005,35.400999999999996,34.408,32.285
43.54600000000001,35.95,36.675,35.332,34.37,32.537
43.298,35.786,36.647,35.258,34.336,32.853
43.038999999999994,35.629,36.608000000000004,35.179,34.306,33.236
42.773999999999994,35.482,36.561,35.096,34.281,33.689
42.505,35.345,36.503,35.01,34.26,34.21
42.233000000000004,35.22,36.437,34.921,34.242,34.793
41.958999999999996,35.107,36.363,34.829,34.229,35.431999999999995
41.684,35.007,36.281,34.736999999999995,34.219,36.111999999999995
41.409,34.923,36.192,34.644,34.213,36.821999999999996
41.135,34.855,36.099000000000004,34.55,34.21,37.543
40.861,34.804,36.001,34.455999999999996,34.211,38.260999999999996
40.591,34.771,35.9,34.361999999999995,34.216,38.958
40.323,34.756,35.797,34.268,34.226,39.618
40.06,34.760999999999996,35.693000000000005,34.173,34.238,40.23
39.801,34.785,35.586,34.077,34.254,40.781
39.546,34.826,35.478,33.981,34.273,41.263000000000005
39.297,34.884,35.368,33.885,34.294000000000004,41.67100000000001
39.053000000000004,34.951,35.257,33.79,34.32,42.001999999999995
38.815,35.024,35.145,33.695,34.348,42.254
38.582,35.101,35.034,33.602,34.381,42.43
38.354,35.183,34.923,33.510999999999996,34.417,42.534
38.13,35.271,34.812,33.42,34.455999999999996,42.571999999999996
37.911,35.366,34.702,33.329,34.498000000000005,42.549
37.694,35.469,34.592,33.239000000000004,34.541,42.475
37.479,35.58,34.483000000000004,33.149,34.586999999999996,42.358000000000004
37.265,35.696,34.374,33.061,34.633,42.205
37.052,35.816,34.266999999999996,32.973,34.681,42.025
36.838,35.939,34.161,32.888000000000005,34.727,41.825
36.625,36.063,34.056999999999995,32.804,34.773,41.608999999999995
36.414,36.184,33.955,32.721,34.818000000000005,41.382
36.205,36.3,33.856,32.64,34.861,41.15
36.001,36.408,33.759,32.561,34.900999999999996,40.914
35.802,36.505,33.665,32.483000000000004,34.938,40.677
35.611,36.588,33.574,32.407,34.971,40.439
35.43,36.655,33.486999999999995,32.333,34.999,40.201
35.262,36.705999999999996,33.403,32.263000000000005,35.021,39.964
35.107,36.739000000000004,33.324,32.196,35.035,39.727
34.968,36.755,33.247,32.132,35.041,39.489000000000004
34.846,36.754,33.174,32.071,35.037,39.25
34.74,36.736999999999995,33.103,32.015,35.024,39.01
34.652,36.707,33.035,31.962,35.003,38.77
34.579,36.662,32.968,31.915,34.972,38.53
34.523,36.605,32.903,31.873,34.934,38.291
34.483000000000004,36.537,32.838,31.838,34.888000000000005,38.053000000000004
34.459,36.458,32.774,31.811,34.835,37.818000000000005
34.451,36.37,32.711999999999996,31.791,34.777,37.586
34.46,36.275,32.65,31.778000000000002,34.714,37.357
34.485,36.173,32.589,31.771,34.648,37.133
34.528,36.065,32.529,31.771,34.578,36.912
34.589,35.953,32.47,31.776999999999997,34.506,36.696
34.668,35.838,32.412,31.788,34.433,36.484
34.763000000000005,35.72,32.355,31.803,34.359,36.277
34.873000000000005,35.6,32.298,31.82,34.285,36.076
34.996,35.48,32.243,31.837,34.215,35.881
35.129,35.358000000000004,32.189,31.854,34.149,35.692
35.27,35.236,32.137,31.868000000000002,34.091,35.509
35.416,35.113,32.086999999999996,31.881,34.045,35.33
35.564,34.989000000000004,32.04,31.892,34.014,35.156
35.71,34.866,31.996,31.901,34.003,34.986
35.853,34.742,31.956,31.908,34.016999999999996,34.819
35.989000000000004,34.621,31.92,31.913,34.062,34.656
36.118,34.501999999999995,31.889,31.915,34.141999999999996,34.495
36.236,34.385999999999996,31.862,31.915,34.263000000000005,34.336999999999996
36.342,34.275,31.839000000000002,31.913,34.427,34.183
36.433,34.168,31.819000000000003,31.91,34.638000000000005,34.033
36.509,34.065,31.802,31.906999999999996,34.895,33.887
36.568000000000005,33.967,31.785999999999998,31.904,35.198,33.748000000000005
36.61,33.874,31.772,31.901999999999997,35.542,33.616
36.634,33.784,31.759,31.901999999999997,35.924,33.493
36.641999999999996,33.698,31.746,31.903000000000002,36.335,33.379
36.633,33.616,31.734,31.905,36.768,33.275999999999996
36.608000000000004,33.538000000000004,31.721999999999998,31.908,37.214,33.183
36.568000000000005,33.463,31.71,31.912,37.663000000000004,33.102
36.513000000000005,33.39,31.698,31.916,38.105,33.034
36.444,33.319,31.688000000000002,31.921,38.532,32.982
36.363,33.249,31.678,31.926,38.934,32.945
36.269,33.181,31.669,31.930999999999997,39.303000000000004,32.927
36.165,33.115,31.662,31.936,39.633,32.928000000000004
36.053000000000004,33.05,31.656999999999996,31.939,39.921,32.946
35.933,32.986999999999995,31.654,31.94,40.162,32.982
35.81,32.926,31.651999999999997,31.939,40.358000000000004,33.035
35.683,32.866,31.651,31.934,40.507,33.105
35.555,32.808,31.651,31.926,40.613,33.19
35.426,32.753,31.651999999999997,31.915,40.676,33.29
35.298,32.7,31.655,31.903000000000002,40.701,33.402
35.17,32.650999999999996,31.656999999999996,31.889,40.69,33.527
35.041,32.605,31.66,31.874000000000002,40.648,33.662
34.912,32.563,31.662,31.861,40.577,33.806999999999995
34.781,32.525,31.662,31.849,40.482,33.96
34.648,32.491,31.660999999999998,31.840999999999998,40.366,34.119
34.512,32.46,31.66,31.839000000000002,40.234,34.281
34.373000000000005,32.431999999999995,31.658,31.846,40.089,34.445
34.232,32.407,31.656,31.866,39.936,34.608000000000004
34.091,32.384,31.651999999999997,31.903000000000002,39.778,34.766999999999996
33.952,32.364000000000004,31.647,31.962,39.618,34.921
33.815,32.347,31.642,32.05,39.457,35.067
33.681,32.333,31.636,32.173,39.299,35.202
33.552,32.324,31.63,32.339,39.143,35.325
33.426,32.317,31.627,32.556,38.99,35.436
33.305,32.315,31.627,32.828,38.841,35.532
33.186,32.317,31.631999999999998,33.161,38.694,35.614000000000004
33.069,32.323,31.646,33.556,38.55,35.681999999999995
32.952,32.332,31.671,34.012,38.408,35.735
32.836999999999996,32.344,31.71,34.528,38.269,35.773
32.723,32.359,31.766,35.097,38.133,35.797
32.611999999999995,32.376,31.844,35.713,38.0,35.806999999999995
32.504,32.395,31.949,36.366,37.87,35.803000000000004
32.4,32.416,32.085,37.045,37.743,35.785
32.303000000000004,32.438,32.258,37.735,37.618,35.755
32.211999999999996,32.459,32.475,38.424,37.496,35.713
32.128,32.48,32.742,39.098,37.374,35.66
32.051,32.498000000000005,33.064,39.745,37.253,35.598
31.98,32.513000000000005,33.446,40.354,37.133,35.527
31.915,32.525,33.891,40.916,37.012,35.45
31.854,32.532,34.4,41.423,36.89,35.369
31.796,32.536,34.971,41.87,36.766,35.284
31.74,32.536,35.6,42.251999999999995,36.639,35.196
31.684,32.533,36.281,42.567,36.508,35.107
31.629,32.527,37.004,42.815,36.372,35.016
31.576,32.516999999999996,37.76,42.996,36.233000000000004,34.924
31.525,32.505,38.536,43.115,36.09,34.83
31.478,32.491,39.317,43.173,35.945,34.734
31.435,32.477,40.089,43.175,35.798,34.635999999999996
31.397,32.461999999999996,40.839,43.125,35.65,34.535
31.365,32.448,41.552,43.028999999999996,35.501999999999995,34.433
31.338,32.437,42.217,42.893,35.354,34.329
31.316,32.431,42.821999999999996,42.724,35.209,34.224000000000004
31.296999999999997,32.433,43.36,42.528999999999996,35.065,34.118
31.283,32.446,43.823,42.313,34.926,34.012
31.271,32.476,44.208,42.082,34.792,33.904
31.263,32.528,44.513000000000005,41.84,34.665,33.797
31.259,32.61,44.739,41.593,34.547,33.689
31.256999999999998,32.729,44.888999999999996,41.343,34.439,33.582
31.256999999999998,32.895,44.968,41.095,34.342,33.476
31.258000000000003,33.114000000000004,44.981,40.849000000000004,34.255,33.371
31.263,33.395,44.934,40.607,34.18,33.268
31.27,33.741,44.835,40.37,34.117,33.166
31.279,34.156,44.691,40.137,34.064,33.065
31.291999999999998,34.64,44.50899999999999,39.91,34.023,32.966
31.307,35.191,44.295,39.689,33.995,32.869
31.324,35.801,44.056999999999995,39.473,33.98,32.775
31.342,36.463,43.799,39.262,33.979,32.681999999999995
31.359,37.166,43.527,39.055,33.99,32.592
31.377,37.897,43.246,38.852,34.012,32.504
31.396,38.643,42.958999999999996,38.653,34.046,32.42
31.416,39.388000000000005,42.669,38.455999999999996,34.09,32.34
31.439,40.119,42.38,38.262,34.141999999999996,32.265
31.465999999999998,40.821999999999996,42.093999999999994,38.071,34.202,32.194
31.498,41.483999999999995,41.81100000000001,37.882,34.269,32.128
31.534000000000002,42.095,41.533,37.694,34.341,32.066
31.573,42.645,41.25899999999999,37.508,34.419000000000004,32.008
31.614,43.126999999999995,40.989,37.321999999999996,34.5,31.954
31.656,43.538999999999994,40.722,37.137,34.586,31.904
31.695999999999998,43.878,40.459,36.952,34.675,31.86
31.736,44.143,40.198,36.766999999999996,34.766999999999996,31.82
31.774,44.336999999999996,39.941,36.584,34.859,31.785
31.809,44.461999999999996,39.687,36.402,34.952,31.754
31.84,44.523999999999994,39.435,36.222,35.045,31.725
31.868000000000002,44.527,39.187,36.046,35.137,31.7
31.89,44.478,38.943000000000005,35.873000000000005,35.229,31.677
31.909000000000002,44.38399999999999,38.704,35.703,35.319,31.656999999999996
31.921999999999997,44.253,38.469,35.536,35.408,31.639
31.929000000000002,44.092,38.24,35.372,35.492,31.623
31.932,43.907,38.016,35.214,35.571999999999996,31.609
31.928,43.705,37.798,35.061,35.645,31.596
31.92,43.492,37.585,34.915,35.711999999999996,31.585
31.908,43.272,37.378,34.777,35.773,31.576
31.891,43.049,37.175,34.648,35.827,31.566999999999997
31.871,42.824,36.978,34.53,35.874,31.561
31.848000000000003,42.6,36.784,34.422,35.912,31.555
31.822,42.378,36.595,34.326,35.943000000000005,31.551
31.795,42.158,36.411,34.242,35.964,31.548000000000002
31.768,41.94,36.231,34.172,35.977,31.546999999999997
31.744,41.724,36.056,34.116,35.982,31.546999999999997
31.726,41.51,35.885999999999996,34.077,35.977,31.55
31.715999999999998,41.297,35.721,34.053000000000004,35.964,31.555999999999997
31.718000000000004,41.086999999999996,35.561,34.047,35.943000000000005,31.565
31.737,40.879,35.408,34.056999999999995,35.913000000000004,31.578000000000003
31.778000000000002,40.674,35.263000000000005,34.085,35.874,31.593000000000004
31.85,40.472,35.128,34.13,35.828,31.611
